##JCAMP-DX=5.01
##FILENAME=KAM-02.jdx
##XUNITS=1/CM
##YUNITS=ABSORBANCE
##FIRSTX=399.282035
##LASTX=4000.535945
##MAXX=4000.535945
##MINX=399.282035
##FIRSTY=0.0572
##LASTY=0.0140
##MAXY=2.4067
##MINY=0.0003
##NPOINTS=3735
##XFACTOR=1
##YFACTOR=1
##XYDATA=(X++(Y..Y))
399.282035 0.0572 0.0671 0.0731 0.0814 0.1014 0.1258 0.1594 0.2014 0.2426 0.2592 
408.926529 0.2619 0.2715 0.2831 0.2765 0.2463 0.2002 0.1575 0.1235 0.1012 0.0894 
418.571022 0.0798 0.0653 0.0572 0.0539 0.0532 0.0511 0.0466 0.0434 0.0403 0.0377 
428.215516 0.0361 0.0346 0.0340 0.0325 0.0337 0.0349 0.0358 0.0366 0.0369 0.0345 
437.860009 0.0320 0.0332 0.0351 0.0331 0.0303 0.0307 0.0323 0.0314 0.0302 0.0291 
447.504503 0.0286 0.0287 0.0294 0.0298 0.0298 0.0311 0.0329 0.0345 0.0374 0.0399 
457.148997 0.0429 0.0481 0.0517 0.0489 0.0467 0.0477 0.0458 0.0418 0.0399 0.0400 
466.793490 0.0416 0.0436 0.0439 0.0447 0.0483 0.0515 0.0561 0.0647 0.0734 0.0835 
476.437984 0.0962 0.1098 0.1257 0.1434 0.1640 0.1886 0.2160 0.2448 0.2833 0.3274 
486.082477 0.3734 0.4179 0.4539 0.4774 0.4865 0.4755 0.4485 0.4122 0.3771 0.3436 
495.726971 0.3127 0.2847 0.2611 0.2396 0.2191 0.2003 0.1829 0.1640 0.1492 0.1364 
505.371465 0.1239 0.1124 0.1025 0.0952 0.0886 0.0824 0.0774 0.0721 0.0677 0.0638 
515.015958 0.0605 0.0577 0.0543 0.0516 0.0501 0.0475 0.0445 0.0423 0.0401 0.0376 
524.660452 0.0353 0.0326 0.0312 0.0305 0.0301 0.0279 0.0256 0.0252 0.0240 0.0230 
534.304945 0.0228 0.0230 0.0232 0.0233 0.0233 0.0228 0.0221 0.0215 0.0216 0.0212 
543.949439 0.0209 0.0205 0.0199 0.0204 0.0214 0.0212 0.0205 0.0204 0.0201 0.0195 
553.593933 0.0196 0.0197 0.0193 0.0193 0.0194 0.0191 0.0186 0.0182 0.0177 0.0169 
563.238426 0.0160 0.0153 0.0151 0.0148 0.0143 0.0141 0.0137 0.0134 0.0133 0.0132 
572.882920 0.0132 0.0128 0.0129 0.0133 0.0136 0.0135 0.0137 0.0136 0.0133 0.0135 
582.527413 0.0138 0.0136 0.0135 0.0134 0.0137 0.0137 0.0136 0.0136 0.0137 0.0136 
592.171907 0.0137 0.0138 0.0139 0.0139 0.0139 0.0137 0.0138 0.0137 0.0134 0.0130 
601.816401 0.0127 0.0125 0.0120 0.0117 0.0118 0.0118 0.0116 0.0115 0.0113 0.0110 
611.460894 0.0109 0.0106 0.0102 0.0099 0.0098 0.0096 0.0096 0.0091 0.0082 0.0077 
621.105388 0.0076 0.0074 0.0072 0.0071 0.0072 0.0077 0.0084 0.0087 0.0090 0.0093 
630.749881 0.0106 0.0139 0.0184 0.0225 0.0255 0.0280 0.0304 0.0328 0.0359 0.0395 
640.394375 0.0431 0.0470 0.0521 0.0579 0.0644 0.0717 0.0801 0.0889 0.0984 0.1074 
650.038869 0.0010 0.0010 0.0010 0.0010 0.0010 0.0010 0.0010 0.0010 0.0010 0.0010 
659.683362 0.0010 0.0010 0.0010 0.0010 0.0010 0.0010 0.0010 0.0010 0.0010 0.0010 
669.327856 0.0010 0.0010 0.0010 0.0010 0.0010 0.0010 0.0010 0.0010 0.0010 0.0010 
678.972349 0.0010 0.0010 0.0010 0.0010 0.0010 0.0010 0.0010 0.0010 0.0010 0.0010 
688.616843 0.0010 0.0010 0.0010 0.0010 0.0010 0.0010 0.0010 0.0010 0.0010 0.0010 
698.261337 0.0010 0.0010 0.0010 0.0010 0.0010 0.0010 0.0010 0.0010 0.0010 0.0010 
707.905830 0.0010 0.0010 0.0010 0.0010 0.0010 0.0010 0.0010 0.0010 0.0010 0.0010 
717.550324 0.0010 0.0010 0.0010 0.0010 0.0010 0.0010 0.0010 0.0010 0.0010 0.0010 
727.194817 0.0010 0.0010 0.0010 0.0010 0.0010 0.0010 0.0010 0.0010 0.0010 0.0010 
736.839311 0.0010 0.0010 0.0010 0.0010 0.0010 0.0010 0.0010 0.0010 0.0010 0.0010 
746.483805 0.0010 0.0010 0.0010 0.0010 0.0010 0.0010 0.0010 0.0010 0.0010 0.0010 
756.128298 0.0010 0.0010 0.0010 0.0010 0.0010 0.0010 0.0010 0.0010 0.0010 0.0010 
765.772792 0.0010 0.0010 0.0010 0.0010 0.0010 0.0010 0.0010 0.0010 0.0010 0.0010 
775.417285 0.0010 0.0010 0.0010 0.0010 0.0010 0.0010 0.0010 0.0010 0.0010 0.0010 
785.061779 0.0010 0.0010 0.0010 0.0010 0.0010 0.0010 0.0010 0.0010 0.0010 0.0010 
794.706273 0.0010 0.0010 0.0010 0.0010 0.0010 0.0010 0.0010 0.0010 0.0010 0.0010 
804.350766 0.0010 0.0010 0.0010 0.0010 0.0010 0.0010 0.0010 0.0010 0.0010 0.0010 
813.995260 0.0010 0.0010 0.0010 0.0010 0.0010 0.0010 0.0010 0.0010 0.0010 0.0010 
823.639753 0.0010 0.0010 0.0010 0.0010 0.0010 0.0010 0.0010 0.0010 0.0010 0.0010 
833.284247 0.0010 0.0010 0.0010 0.0010 0.0010 0.0010 0.0010 0.0010 0.0010 0.0010 
842.928741 0.0010 0.0010 0.0010 0.0010 0.0010 0.0010 0.0010 0.0010 0.0010 0.0010 
852.573234 0.0010 0.0010 0.0010 0.0010 0.0010 0.0010 0.0010 0.0010 0.1371 0.2074 
862.217728 0.3069 0.3752 0.3366 0.2420 0.1628 0.1105 0.0787 0.0611 0.0529 0.0493 
871.862221 0.0468 0.0431 0.0380 0.0327 0.0293 0.0288 0.0315 0.0358 0.0403 0.0433 
881.506715 0.0446 0.0446 0.0454 0.0485 0.0553 0.0658 0.0792 0.0938 0.1077 0.1190 
891.151209 0.1274 0.1336 0.1391 0.1441 0.1481 0.1491 0.1477 0.1445 0.1416 0.1402 
900.795702 0.1420 0.1491 0.1645 0.1921 0.2366 0.3020 0.3876 0.4649 0.4724 0.3938 
910.440196 0.2906 0.2069 0.1494 0.1109 0.0853 0.0680 0.0567 0.0494 0.0452 0.0425 
920.084689 0.0405 0.0381 0.0351 0.0315 0.0280 0.0250 0.0228 0.0213 0.0210 0.0216 
929.729183 0.0226 0.0229 0.0223 0.0207 0.0190 0.0176 0.0168 0.0158 0.0149 0.0144 
939.373677 0.0146 0.0157 0.0174 0.0190 0.0204 0.0211 0.0213 0.0208 0.0196 0.0179 
949.018170 0.0162 0.0149 0.0143 0.0144 0.0152 0.0163 0.0174 0.0182 0.0186 0.0183 
958.662664 0.0176 0.0166 0.0158 0.0153 0.0153 0.0158 0.0167 0.0177 0.0184 0.0186 
968.307157 0.0183 0.0177 0.0170 0.0161 0.0151 0.0136 0.0118 0.0099 0.0086 0.0079 
977.951651 0.0079 0.0088 0.0106 0.0130 0.0163 0.0202 0.0247 0.0298 0.0363 0.0446 
987.596145 0.0564 0.0720 0.0901 0.1040 0.1041 0.0882 0.0667 0.0487 0.0368 0.0289 
997.240638 0.0236 0.0198 0.0169 0.0143 0.0125 0.0113 0.0112 0.0118 0.0137 0.0166 
1006.885132 0.0205 0.0255 0.0317 0.0393 0.0491 0.0613 0.0771 0.0981 0.1285 
1015.565176 0.1725 0.2298 0.2772 0.2735 0.2181 0.1564 0.1126 0.0863 0.0708 
1024.245220 0.0614 0.0551 0.0507 0.0472 0.0444 0.0423 0.0409 0.0402 0.0403 
1032.925265 0.0411 0.0427 0.0448 0.0473 0.0502 0.0534 0.0569 0.0611 0.0660 
1041.605309 0.0724 0.0808 0.0925 0.1089 0.1321 0.1643 0.2068 0.2559 0.3005 
1050.285353 0.3234 0.3166 0.2869 0.2488 0.2123 0.1817 0.1575 0.1392 0.1255 
1058.965397 0.1155 0.1080 0.1026 0.0982 0.0946 0.0912 0.0883 0.0855 0.0835 
1067.645442 0.0824 0.0827 0.0849 0.0894 0.0956 0.1008 0.0999 0.0915 0.0790 
1076.325486 0.0678 0.0596 0.0541 0.0504 0.0481 0.0463 0.0448 0.0432 0.0418 
1085.005530 0.0404 0.0392 0.0384 0.0380 0.0382 0.0388 0.0399 0.0414 0.0433 
1093.685574 0.0456 0.0479 0.0503 0.0526 0.0551 0.0579 0.0613 0.0651 0.0698 
1102.365618 0.0754 0.0825 0.0910 0.1019 0.1156 0.1327 0.1539 0.1806 0.2144 
1111.045663 0.2583 0.3151 0.3880 0.4798 0.5973 0.7438 0.9142 1.0707 1.1377 
1119.725707 1.0533 0.8768 0.6928 0.5430 0.4309 0.3500 0.2910 0.2478 0.2151 
1128.405751 0.1892 0.1676 0.1490 0.1328 0.1190 0.1074 0.0978 0.0896 0.0826 
1137.085795 0.0766 0.0717 0.0674 0.0638 0.0605 0.0576 0.0546 0.0518 0.0491 
1145.765840 0.0470 0.0451 0.0436 0.0423 0.0416 0.0411 0.0408 0.0407 0.0408 
1154.445884 0.0408 0.0408 0.0405 0.0399 0.0390 0.0380 0.0370 0.0362 0.0355 
1163.125928 0.0351 0.0349 0.0351 0.0353 0.0356 0.0357 0.0358 0.0357 0.0356 
1171.805972 0.0356 0.0359 0.0361 0.0363 0.0366 0.0371 0.0376 0.0383 0.0390 
1180.486017 0.0396 0.0399 0.0403 0.0406 0.0410 0.0411 0.0413 0.0413 0.0415 
1189.166061 0.0418 0.0423 0.0430 0.0442 0.0458 0.0480 0.0505 0.0535 0.0569 
1197.846105 0.0608 0.0651 0.0700 0.0755 0.0819 0.0891 0.0976 0.1073 0.1185 
1206.526149 0.1303 0.1431 0.1578 0.1763 0.1999 0.2310 0.2712 0.3232 0.3890 
1215.206194 0.4737 0.5801 0.7131 0.8710 1.0482 1.2088 1.3024 1.2660 1.1262 
1223.886238 0.9433 0.7740 0.6340 0.5276 0.4464 0.3854 0.3383 0.3020 0.2728 
1232.566282 0.2493 0.2290 0.2110 0.1939 0.1780 0.1624 0.1478 0.1339 0.1218 
1241.246326 0.1112 0.1028 0.0960 0.0908 0.0865 0.0833 0.0802 0.0777 0.0747 
1249.926371 0.0714 0.0675 0.0636 0.0599 0.0571 0.0551 0.0548 0.0559 0.0589 
1258.606415 0.0641 0.0724 0.0855 0.1046 0.1290 0.1559 0.1727 0.1675 0.1429 
1267.286459 0.1148 0.0923 0.0769 0.0665 0.0598 0.0552 0.0526 0.0507 0.0495 
1275.966503 0.0487 0.0483 0.0479 0.0478 0.0478 0.0479 0.0479 0.0483 0.0488 
1284.646548 0.0500 0.0514 0.0534 0.0558 0.0589 0.0621 0.0659 0.0701 0.0749 
1293.326592 0.0805 0.0873 0.0952 0.1051 0.1169 0.1313 0.1485 0.1692 0.1937 
1302.006636 0.2234 0.2594 0.3047 0.3627 0.4383 0.5349 0.6565 0.8045 0.9608 
1310.686680 1.0890 1.1234 1.0444 0.9051 0.7718 0.6574 0.5607 0.4751 0.4068 
1319.366724 0.3490 0.3031 0.2654 0.2344 0.2099 0.1917 0.1787 0.1701 0.1648 
1328.046769 0.1626 0.1626 0.1651 0.1716 0.1843 0.2059 0.2407 0.2960 0.3779 
1336.726813 0.4929 0.5898 0.5797 0.4809 0.3809 0.3304 0.3246 0.3553 0.4236 
1345.406857 0.5221 0.6112 0.6096 0.5024 0.3701 0.2675 0.2018 0.1591 0.1314 
1354.086901 0.1127 0.0993 0.0896 0.0825 0.0766 0.0719 0.0680 0.0647 0.0614 
1362.766946 0.0583 0.0568 0.0564 0.0554 0.0543 0.0532 0.0519 0.0515 0.0511 
1371.446990 0.0503 0.0491 0.0470 0.0450 0.0448 0.0457 0.0459 0.0459 0.0459 
1380.127034 0.0462 0.0470 0.0478 0.0488 0.0499 0.0511 0.0518 0.0521 0.0538 
1388.807078 0.0568 0.0589 0.0612 0.0636 0.0662 0.0677 0.0696 0.0740 0.0791 
1397.487123 0.0827 0.0845 0.0870 0.0921 0.0955 0.0989 0.1018 0.1045 0.1089 
1406.167167 0.1166 0.1237 0.1329 0.1432 0.1565 0.1718 0.1917 0.2153 0.2445 
1414.847211 0.2794 0.3231 0.3756 0.4393 0.4936 0.5851 0.6325 0.6432 0.6337 
1423.527255 0.6149 0.5980 0.6013 0.6189 0.6515 0.6869 0.7117 0.7016 0.6552 
1432.207300 0.5792 0.4899 0.4076 0.3512 0.3086 0.2633 0.2452 0.2429 0.2445 
1440.887344 0.2585 0.2831 0.3273 0.3920 0.4943 0.6396 0.8374 1.0668 1.3325 
1449.567388 1.3371 1.2615 1.0708 0.8417 0.6505 0.5208 0.4234 0.3618 0.2991 
1458.247432 0.2767 0.2744 0.2835 0.2992 0.3146 0.3122 0.2876 0.2315 0.1879 
1466.927477 0.1642 0.1423 0.1250 0.1117 0.1006 0.0879 0.0762 0.0726 0.0709 
1475.607521 0.0673 0.0624 0.0611 0.0593 0.0568 0.0540 0.0514 0.0502 0.0492 
1484.287565 0.0479 0.0466 0.0445 0.0413 0.0416 0.0413 0.0384 0.0407 0.0443 
1492.967609 0.0454 0.0452 0.0436 0.0395 0.0379 0.0381 0.0350 0.0353 0.0010 
1501.647654 0.0010 0.0010 0.0010 0.0010 0.0010 0.0010 0.0010 0.0010 0.0010 
1510.327698 0.0010 0.0010 0.0010 0.0010 0.0010 0.0010 0.0010 0.0010 0.0010 
1519.007742 0.0010 0.0010 0.0010 0.0010 0.0010 0.0010 0.0010 0.0010 0.0010 
1527.687786 0.0010 0.0010 0.0010 0.0010 0.0010 0.0010 0.0010 0.0010 0.0010 
1536.367830 0.0010 0.0010 0.0010 0.0010 0.0010 0.0010 0.0010 0.0010 0.0010 
1545.047875 0.0010 0.0010 0.0010 0.0010 0.0010 0.0010 0.0010 0.0010 0.0010 
1553.727919 0.0010 0.0010 0.0010 0.0010 0.0010 0.0010 0.0010 0.0010 0.0010 
1562.407963 0.0010 0.0010 0.0010 0.0010 0.0010 0.0010 0.0010 0.0010 0.0010 
1571.088007 0.0010 0.0010 0.0010 0.0010 0.0010 0.0010 0.0010 0.0010 0.0010 
1579.768052 0.0010 0.0010 0.0010 0.0010 0.0010 0.0010 0.0010 0.0010 0.0010 
1588.448096 0.0010 0.0010 0.0010 0.0010 0.0010 0.0010 0.0010 0.0010 0.0010 
1597.128140 0.0010 0.0010 0.0010 0.0010 0.0010 0.0010 0.0010 0.0010 0.0010 
1605.808184 0.0010 0.0010 0.0010 0.0010 0.0010 0.0010 0.0010 0.0010 0.0010 
1614.488229 0.0010 0.0010 0.0010 0.0010 0.0010 0.0010 0.0010 0.0010 0.0010 
1623.168273 0.0010 0.0010 0.0010 0.0010 0.0010 0.0010 0.0010 0.0010 0.0010 
1631.848317 0.0010 0.0010 0.0010 0.0010 0.0010 0.0010 0.0010 0.0010 0.0010 
1640.528361 0.0010 0.0010 0.0010 0.0010 0.0010 0.0010 0.0010 0.0010 0.0010 
1649.208406 0.0010 0.0756 0.0724 0.0647 0.0477 0.0550 0.0665 0.0714 0.0741 
1657.888450 0.0764 0.0792 0.0823 0.0860 0.0881 0.0919 0.1030 0.1134 0.1237 
1666.568494 0.1357 0.1465 0.1556 0.1739 0.1929 0.2081 0.2327 0.2535 0.2697 
1675.248538 0.2872 0.3047 0.3029 0.2919 0.2757 0.2576 0.2442 0.2378 0.2312 
1683.928583 0.2227 0.2340 0.2497 0.2599 0.2715 0.2876 0.3065 0.3336 0.3647 
1692.608627 0.4007 0.4450 0.4856 0.5424 0.6848 0.7732 0.8751 0.9683 1.2325 
1701.288671 1.6741 1.8458 2.0842 2.2443 2.1934 2.1126 2.1693 2.2467 2.2827 
1709.968715 2.2286 2.2561 2.2623 2.2536 2.1579 2.0737 2.0812 2.0531 1.8600 
1718.648760 1.9572 2.1599 2.2755 2.2741 2.2807 2.2464 2.3011 2.3446 2.4067 
1727.328804 2.1309 1.7488 1.4789 1.2008 1.0188 0.9069 0.8146 0.7025 0.6063 
1736.008848 0.5673 0.5324 0.4952 0.4655 0.4280 0.3976 0.3802 0.3606 0.3433 
1744.688892 0.3359 0.3347 0.3374 0.3444 0.3485 0.3455 0.3336 0.3026 0.2771 
1753.368936 0.2621 0.2486 0.2387 0.2308 0.2241 0.2211 0.2184 0.2162 0.2145 
1762.048981 0.2179 0.2273 0.2349 0.2409 0.2402 0.2327 0.2152 0.1894 0.1710 
1770.729025 0.1519 0.1300 0.1124 0.1048 0.0996 0.0920 0.0853 0.0809 0.0760 
1779.409069 0.0715 0.0663 0.0638 0.0627 0.0612 0.0590 0.0577 0.0568 0.0563 
1788.089113 0.0557 0.0556 0.0549 0.0539 0.0525 0.0546 0.0606 0.0647 0.0686 
1796.769158 0.0751 0.0817 0.0874 0.0949 0.1067 0.1170 0.1278 0.1358 0.1390 
1805.449202 0.1369 0.1307 0.1207 0.1095 0.0989 0.0880 0.0787 0.0733 0.0681 
1814.129246 0.0637 0.0598 0.0566 0.0535 0.0510 0.0487 0.0469 0.0451 0.0438 
1822.809290 0.0424 0.0412 0.0389 0.0382 0.0389 0.0384 0.0354 0.0311 0.0311 
1831.489335 0.0330 0.0326 0.0314 0.0299 0.0286 0.0271 0.0257 0.0249 0.0242 
1840.169379 0.0231 0.0221 0.0208 0.0186 0.0146 0.0151 0.0170 0.0169 0.0163 
1848.849423 0.0166 0.0168 0.0170 0.0171 0.0175 0.0178 0.0183 0.0186 0.0192 
1857.529467 0.0195 0.0201 0.0209 0.0221 0.0232 0.0246 0.0260 0.0277 0.0289 
1866.209512 0.0297 0.0298 0.0296 0.0296 0.0317 0.0331 0.0331 0.0321 0.0309 
1874.889556 0.0293 0.0277 0.0260 0.0247 0.0236 0.0229 0.0220 0.0210 0.0195 
1883.569600 0.0178 0.0163 0.0154 0.0148 0.0142 0.0131 0.0115 0.0116 0.0125 
1892.249644 0.0123 0.0122 0.0116 0.0112 0.0116 0.0122 0.0124 0.0127 0.0128 
1900.929689 0.0131 0.0133 0.0135 0.0135 0.0137 0.0140 0.0140 0.0136 0.0135 
1909.609733 0.0130 0.0131 0.0135 0.0134 0.0131 0.0130 0.0127 0.0123 0.0109 
1918.289777 0.0101 0.0112 0.0117 0.0115 0.0108 0.0102 0.0110 0.0115 0.0117 
1926.969821 0.0118 0.0120 0.0123 0.0126 0.0129 0.0133 0.0138 0.0145 0.0152 
1935.649866 0.0161 0.0170 0.0180 0.0190 0.0200 0.0207 0.0207 0.0197 0.0204 
1944.329910 0.0211 0.0207 0.0201 0.0199 0.0196 0.0192 0.0187 0.0183 0.0179 
1953.009954 0.0175 0.0170 0.0167 0.0165 0.0166 0.0167 0.0164 0.0161 0.0164 
1961.689998 0.0166 0.0170 0.0173 0.0178 0.0182 0.0184 0.0189 0.0200 0.0209 
1970.370042 0.0216 0.0221 0.0227 0.0230 0.0230 0.0225 0.0217 0.0207 0.0197 
1979.050087 0.0186 0.0176 0.0165 0.0155 0.0144 0.0134 0.0124 0.0115 0.0107 
1987.730131 0.0099 0.0093 0.0091 0.0086 0.0081 0.0081 0.0088 0.0091 0.0094 
1996.410175 0.0095 0.0096 0.0096 0.0096 0.0096 0.0097 0.0098 0.0100 0.0102 
2005.090219 0.0105 0.0108 0.0112 0.0114 0.0115 0.0116 0.0119 0.0120 0.0121 
2013.770264 0.0121 0.0120 0.0118 0.0114 0.0112 0.0112 0.0110 0.0107 0.0103 
2022.450308 0.0100 0.0096 0.0094 0.0092 0.0091 0.0090 0.0090 0.0089 0.0089 
2031.130352 0.0089 0.0090 0.0090 0.0089 0.0086 0.0083 0.0080 0.0079 0.0077 
2039.810396 0.0078 0.0080 0.0082 0.0086 0.0089 0.0093 0.0098 0.0102 0.0107 
2048.490441 0.0112 0.0120 0.0128 0.0138 0.0150 0.0164 0.0180 0.0198 0.0217 
2057.170485 0.0237 0.0254 0.0269 0.0280 0.0286 0.0284 0.0276 0.0261 0.0244 
2065.850529 0.0225 0.0206 0.0188 0.0172 0.0158 0.0147 0.0138 0.0132 0.0127 
2074.530573 0.0124 0.0123 0.0122 0.0122 0.0122 0.0122 0.0124 0.0127 0.0131 
2083.210618 0.0135 0.0140 0.0146 0.0153 0.0159 0.0164 0.0169 0.0174 0.0177 
2091.890662 0.0179 0.0181 0.0182 0.0181 0.0177 0.0170 0.0163 0.0157 0.0151 
2100.570706 0.0144 0.0140 0.0137 0.0135 0.0132 0.0130 0.0128 0.0128 0.0126 
2109.250750 0.0125 0.0124 0.0124 0.0122 0.0121 0.0120 0.0120 0.0119 0.0119 
2117.930795 0.0120 0.0121 0.0124 0.0126 0.0129 0.0133 0.0138 0.0143 0.0147 
2126.610839 0.0152 0.0156 0.0159 0.0159 0.0159 0.0157 0.0155 0.0152 0.0150 
2135.290883 0.0147 0.0144 0.0140 0.0135 0.0130 0.0126 0.0122 0.0118 0.0115 
2143.970927 0.0112 0.0109 0.0107 0.0107 0.0106 0.0106 0.0107 0.0109 0.0111 
2152.650972 0.0113 0.0116 0.0119 0.0122 0.0124 0.0126 0.0129 0.0131 0.0133 
2161.331016 0.0138 0.0144 0.0150 0.0158 0.0168 0.0180 0.0191 0.0204 0.0219 
2170.011060 0.0232 0.0245 0.0255 0.0264 0.0267 0.0266 0.0259 0.0247 0.0230 
2178.691104 0.0214 0.0201 0.0190 0.0182 0.0177 0.0172 0.0166 0.0161 0.0156 
2187.371148 0.0151 0.0146 0.0143 0.0140 0.0137 0.0137 0.0137 0.0138 0.0140 
2196.051193 0.0144 0.0149 0.0153 0.0157 0.0159 0.0161 0.0161 0.0161 0.0159 
2204.731237 0.0157 0.0157 0.0156 0.0156 0.0157 0.0157 0.0154 0.0150 0.0146 
2213.411281 0.0143 0.0141 0.0140 0.0139 0.0139 0.0140 0.0142 0.0143 0.0144 
2222.091325 0.0144 0.0143 0.0141 0.0139 0.0136 0.0135 0.0134 0.0135 0.0136 
2230.771370 0.0138 0.0141 0.0143 0.0145 0.0145 0.0145 0.0144 0.0142 0.0139 
2239.451414 0.0135 0.0132 0.0129 0.0128 0.0128 0.0129 0.0128 0.0125 0.0122 
2248.131458 0.0119 0.0118 0.0119 0.0121 0.0123 0.0125 0.0124 0.0118 0.0112 
2256.811502 0.0105 0.0101 0.0098 0.0097 0.0097 0.0100 0.0103 0.0107 0.0111 
2265.491547 0.0116 0.0121 0.0125 0.0127 0.0127 0.0123 0.0118 0.0111 0.0104 
2274.171591 0.0097 0.0093 0.0089 0.0088 0.0087 0.0088 0.0089 0.0091 0.0094 
2282.851635 0.0098 0.0100 0.0104 0.0106 0.0109 0.0111 0.0112 0.0113 0.0113 
2291.531679 0.0113 0.0111 0.0109 0.0107 0.0104 0.0104 0.0101 0.0101 0.0099 
2300.211724 0.0100 0.0098 0.0098 0.0098 0.0098 0.0102 0.0104 0.0109 0.0111 
2308.891768 0.0116 0.0118 0.0120 0.0123 0.0123 0.0125 0.0121 0.0121 0.0118 
2317.571812 0.0120 0.0121 0.0126 0.0128 0.0137 0.0141 0.0151 0.0157 0.0166 
2326.251856 0.0172 0.0178 0.0179 0.0177 0.0172 0.0166 0.0159 0.0153 0.0149 
2334.931901 0.0149 0.0150 0.0149 0.0140 0.0133 0.0126 0.0118 0.0112 0.0109 
2343.611945 0.0110 0.0113 0.0115 0.0116 0.0118 0.0125 0.0127 0.0123 0.0117 
2352.291989 0.0111 0.0109 0.0113 0.0117 0.0117 0.0119 0.0123 0.0125 0.0124 
2360.972033 0.0123 0.0124 0.0124 0.0123 0.0120 0.0115 0.0110 0.0108 0.0107 
2369.652078 0.0108 0.0111 0.0116 0.0121 0.0127 0.0132 0.0138 0.0142 0.0147 
2378.332122 0.0150 0.0150 0.0149 0.0147 0.0142 0.0136 0.0129 0.0123 0.0117 
2387.012166 0.0113 0.0108 0.0106 0.0105 0.0105 0.0105 0.0106 0.0105 0.0103 
2395.692210 0.0101 0.0098 0.0095 0.0092 0.0091 0.0090 0.0091 0.0093 0.0096 
2404.372254 0.0100 0.0104 0.0108 0.0112 0.0115 0.0117 0.0118 0.0119 0.0121 
2413.052299 0.0123 0.0127 0.0131 0.0137 0.0141 0.0145 0.0146 0.0146 0.0146 
2421.732343 0.0148 0.0149 0.0151 0.0151 0.0152 0.0149 0.0144 0.0136 0.0128 
2430.412387 0.0119 0.0113 0.0108 0.0105 0.0104 0.0105 0.0107 0.0110 0.0112 
2439.092431 0.0114 0.0114 0.0113 0.0112 0.0111 0.0110 0.0111 0.0111 0.0112 
2447.772476 0.0113 0.0114 0.0114 0.0116 0.0116 0.0116 0.0116 0.0117 0.0118 
2456.452520 0.0119 0.0121 0.0123 0.0126 0.0129 0.0131 0.0135 0.0138 0.0141 
2465.132564 0.0143 0.0143 0.0142 0.0138 0.0133 0.0128 0.0123 0.0117 0.0113 
2473.812608 0.0109 0.0105 0.0101 0.0098 0.0097 0.0097 0.0097 0.0096 0.0096 
2482.492653 0.0095 0.0095 0.0093 0.0092 0.0092 0.0091 0.0089 0.0088 0.0087 
2491.172697 0.0086 0.0085 0.0084 0.0083 0.0083 0.0083 0.0084 0.0085 0.0087 
2499.852741 0.0090 0.0091 0.0092 0.0093 0.0093 0.0093 0.0093 0.0094 0.0094 
2508.532785 0.0095 0.0096 0.0098 0.0101 0.0104 0.0108 0.0112 0.0118 0.0123 
2517.212830 0.0130 0.0138 0.0145 0.0151 0.0156 0.0159 0.0159 0.0157 0.0155 
2525.892874 0.0153 0.0152 0.0153 0.0153 0.0155 0.0156 0.0156 0.0155 0.0153 
2534.572918 0.0152 0.0149 0.0147 0.0143 0.0140 0.0137 0.0134 0.0130 0.0127 
2543.252962 0.0123 0.0121 0.0119 0.0117 0.0116 0.0115 0.0114 0.0114 0.0113 
2551.933007 0.0113 0.0113 0.0114 0.0115 0.0117 0.0120 0.0124 0.0128 0.0133 
2560.613051 0.0139 0.0145 0.0151 0.0156 0.0162 0.0166 0.0169 0.0169 0.0166 
2569.293095 0.0163 0.0159 0.0156 0.0154 0.0152 0.0151 0.0149 0.0147 0.0145 
2577.973139 0.0144 0.0145 0.0146 0.0147 0.0149 0.0151 0.0153 0.0154 0.0154 
2586.653184 0.0153 0.0152 0.0149 0.0147 0.0144 0.0142 0.0141 0.0141 0.0141 
2595.333228 0.0143 0.0146 0.0150 0.0155 0.0161 0.0167 0.0174 0.0182 0.0193 
2604.013272 0.0205 0.0221 0.0236 0.0249 0.0257 0.0261 0.0259 0.0254 0.0250 
2612.693316 0.0246 0.0243 0.0238 0.0231 0.0222 0.0212 0.0201 0.0190 0.0181 
2621.373360 0.0171 0.0164 0.0158 0.0154 0.0151 0.0149 0.0148 0.0148 0.0148 
2630.053405 0.0148 0.0150 0.0152 0.0154 0.0158 0.0163 0.0171 0.0181 0.0192 
2638.733449 0.0205 0.0221 0.0240 0.0261 0.0282 0.0304 0.0323 0.0338 0.0347 
2647.413493 0.0355 0.0361 0.0367 0.0371 0.0374 0.0372 0.0367 0.0358 0.0350 
2656.093537 0.0343 0.0340 0.0342 0.0348 0.0360 0.0379 0.0405 0.0442 0.0491 
2664.773582 0.0555 0.0629 0.0701 0.0753 0.0769 0.0753 0.0726 0.0705 0.0698 
2673.453626 0.0702 0.0706 0.0701 0.0678 0.0634 0.0577 0.0514 0.0456 0.0404 
2682.133670 0.0360 0.0324 0.0295 0.0272 0.0255 0.0242 0.0234 0.0228 0.0224 
2690.813714 0.0221 0.0216 0.0209 0.0203 0.0195 0.0189 0.0183 0.0178 0.0174 
2699.493759 0.0172 0.0170 0.0170 0.0171 0.0172 0.0174 0.0176 0.0178 0.0179 
2708.173803 0.0180 0.0180 0.0180 0.0179 0.0179 0.0179 0.0179 0.0177 0.0174 
2716.853847 0.0169 0.0164 0.0161 0.0159 0.0158 0.0159 0.0160 0.0162 0.0164 
2725.533891 0.0167 0.0169 0.0171 0.0174 0.0177 0.0179 0.0181 0.0184 0.0185 
2734.213936 0.0186 0.0186 0.0186 0.0185 0.0184 0.0184 0.0184 0.0183 0.0184 
2742.893980 0.0184 0.0185 0.0185 0.0186 0.0187 0.0188 0.0190 0.0194 0.0199 
2751.574024 0.0207 0.0217 0.0229 0.0242 0.0258 0.0275 0.0294 0.0311 0.0325 
2760.254068 0.0334 0.0337 0.0335 0.0332 0.0328 0.0326 0.0325 0.0326 0.0327 
2768.934113 0.0329 0.0333 0.0338 0.0346 0.0356 0.0366 0.0377 0.0386 0.0392 
2777.614157 0.0394 0.0394 0.0391 0.0390 0.0391 0.0395 0.0403 0.0414 0.0427 
2786.294201 0.0444 0.0462 0.0482 0.0507 0.0537 0.0575 0.0620 0.0669 0.0715 
2794.974245 0.0750 0.0766 0.0757 0.0728 0.0691 0.0658 0.0634 0.0622 0.0620 
2803.654290 0.0627 0.0643 0.0666 0.0693 0.0720 0.0742 0.0761 0.0775 0.0791 
2812.334334 0.0812 0.0844 0.0886 0.0939 0.1001 0.1075 0.1157 0.1250 0.1351 
2821.014378 0.1459 0.1570 0.1683 0.1788 0.1880 0.1951 0.1998 0.2018 0.2015 
2829.694422 0.1991 0.1958 0.1919 0.1881 0.1849 0.1828 0.1817 0.1822 0.1843 
2838.374466 0.1883 0.1939 0.2017 0.2117 0.2244 0.2398 0.2583 0.2802 0.3063 
2847.054511 0.3369 0.3731 0.4155 0.4659 0.5248 0.5939 0.6717 0.7580 0.8464 
2855.734555 0.9330 1.0072 1.0671 1.1080 1.1414 1.1717 1.2115 1.2587 1.3188 
2864.414599 1.3734 1.4170 1.4265 1.4021 1.3356 1.2509 1.1534 1.0596 0.9714 
2873.094643 0.8963 0.8323 0.7816 0.7405 0.7090 0.6829 0.6604 0.6371 0.6130 
2881.774688 0.5875 0.5647 0.5462 0.5348 0.5301 0.5331 0.5420 0.5560 0.5722 
2890.454732 0.5894 0.6038 0.6153 0.6225 0.6277 0.6309 0.6339 0.6354 0.6371 
2899.134776 0.6376 0.6384 0.6390 0.6419 0.6464 0.6540 0.6630 0.6737 0.6833 
2907.814820 0.6935 0.7041 0.7192 0.7397 0.7688 0.8054 0.8525 0.9068 0.9695 
2916.494865 1.0361 1.1088 1.1804 1.2549 1.3243 1.3949 1.4612 1.5400 1.6256 
2925.174909 1.7347 1.8483 1.9752 2.0904 2.1857 2.2021 2.1319 2.0938 2.0581 
2933.854953 2.0529 2.0306 2.0279 2.0064 2.0061 1.9929 2.0021 1.9988 2.0351 
2942.534997 2.0747 2.1311 2.1043 2.1091 2.1320 2.1438 2.1012 2.0931 2.0854 
2951.215042 2.0602 1.9795 1.8713 1.7854 1.7082 1.6532 1.6049 1.5746 1.5453 
2959.895086 1.5243 1.4965 1.4690 1.4323 1.3928 1.3396 1.2829 1.2178 1.1528 
2968.575130 1.0833 1.0150 0.9441 0.8749 0.8058 0.7398 0.6767 0.6199 0.5671 
2977.255174 0.5195 0.4761 0.4378 0.4032 0.3722 0.3442 0.3191 0.2961 0.2752 
2985.935219 0.2560 0.2387 0.2226 0.2080 0.1946 0.1824 0.1711 0.1611 0.1520 
2994.615263 0.1437 0.1360 0.1291 0.1227 0.1169 0.1116 0.1067 0.1022 0.0980 
3003.295307 0.0942 0.0906 0.0872 0.0842 0.0814 0.0788 0.0762 0.0738 0.0716 
3011.975351 0.0695 0.0675 0.0658 0.0641 0.0625 0.0610 0.0598 0.0586 0.0575 
3020.655396 0.0565 0.0555 0.0545 0.0536 0.0527 0.0518 0.0509 0.0502 0.0492 
3029.335440 0.0482 0.0469 0.0456 0.0444 0.0432 0.0418 0.0404 0.0392 0.0380 
3038.015484 0.0368 0.0357 0.0347 0.0338 0.0330 0.0324 0.0318 0.0313 0.0308 
3046.695528 0.0305 0.0303 0.0300 0.0299 0.0299 0.0299 0.0299 0.0298 0.0297 
3055.375572 0.0295 0.0291 0.0289 0.0288 0.0285 0.0282 0.0277 0.0272 0.0266 
3064.055617 0.0259 0.0252 0.0246 0.0237 0.0232 0.0227 0.0222 0.0217 0.0212 
3072.735661 0.0207 0.0202 0.0197 0.0192 0.0188 0.0184 0.0180 0.0175 0.0171 
3081.415705 0.0168 0.0164 0.0161 0.0159 0.0157 0.0154 0.0153 0.0151 0.0149 
3090.095749 0.0147 0.0144 0.0142 0.0140 0.0138 0.0135 0.0132 0.0131 0.0132 
3098.775794 0.0132 0.0131 0.0130 0.0131 0.0132 0.0133 0.0134 0.0136 0.0136 
3107.455838 0.0135 0.0135 0.0135 0.0135 0.0135 0.0135 0.0136 0.0136 0.0135 
3116.135882 0.0136 0.0138 0.0140 0.0139 0.0140 0.0140 0.0138 0.0136 0.0138 
3124.815926 0.0138 0.0137 0.0135 0.0136 0.0135 0.0134 0.0134 0.0133 0.0131 
3133.495971 0.0129 0.0131 0.0132 0.0131 0.0130 0.0128 0.0127 0.0125 0.0124 
3142.176015 0.0123 0.0122 0.0122 0.0121 0.0119 0.0119 0.0118 0.0119 0.0117 
3150.856059 0.0116 0.0115 0.0114 0.0113 0.0111 0.0109 0.0108 0.0107 0.0106 
3159.536103 0.0105 0.0105 0.0105 0.0105 0.0105 0.0106 0.0106 0.0107 0.0106 
3168.216148 0.0106 0.0105 0.0104 0.0103 0.0103 0.0102 0.0101 0.0101 0.0101 
3176.896192 0.0099 0.0097 0.0097 0.0099 0.0099 0.0099 0.0098 0.0097 0.0095 
3185.576236 0.0094 0.0095 0.0095 0.0094 0.0094 0.0093 0.0093 0.0093 0.0094 
3194.256280 0.0095 0.0096 0.0097 0.0097 0.0097 0.0100 0.0102 0.0102 0.0103 
3202.936325 0.0104 0.0105 0.0105 0.0105 0.0106 0.0107 0.0107 0.0108 0.0111 
3211.616369 0.0114 0.0115 0.0114 0.0114 0.0117 0.0118 0.0118 0.0117 0.0114 
3220.296413 0.0113 0.0113 0.0113 0.0114 0.0114 0.0115 0.0116 0.0116 0.0118 
3228.976457 0.0120 0.0121 0.0122 0.0124 0.0124 0.0124 0.0125 0.0124 0.0123 
3237.656502 0.0123 0.0123 0.0123 0.0122 0.0123 0.0123 0.0123 0.0120 0.0120 
3246.336546 0.0121 0.0121 0.0120 0.0119 0.0117 0.0115 0.0113 0.0110 0.0107 
3255.016590 0.0107 0.0107 0.0105 0.0103 0.0103 0.0101 0.0101 0.0100 0.0098 
3263.696634 0.0097 0.0094 0.0092 0.0092 0.0092 0.0091 0.0090 0.0090 0.0089 
3272.376678 0.0087 0.0084 0.0083 0.0085 0.0085 0.0084 0.0085 0.0085 0.0084 
3281.056723 0.0083 0.0082 0.0081 0.0080 0.0079 0.0078 0.0078 0.0077 0.0077 
3289.736767 0.0079 0.0081 0.0081 0.0081 0.0082 0.0083 0.0085 0.0085 0.0084 
3298.416811 0.0083 0.0083 0.0083 0.0083 0.0084 0.0085 0.0085 0.0086 0.0087 
3307.096855 0.0088 0.0087 0.0086 0.0086 0.0086 0.0085 0.0084 0.0084 0.0085 
3315.776900 0.0086 0.0086 0.0085 0.0086 0.0088 0.0090 0.0092 0.0093 0.0095 
3324.456944 0.0097 0.0099 0.0099 0.0100 0.0102 0.0103 0.0105 0.0106 0.0107 
3333.136988 0.0108 0.0109 0.0111 0.0114 0.0117 0.0120 0.0122 0.0122 0.0122 
3341.817032 0.0124 0.0126 0.0126 0.0126 0.0126 0.0127 0.0129 0.0131 0.0135 
3350.497077 0.0136 0.0135 0.0135 0.0134 0.0134 0.0136 0.0138 0.0139 0.0140 
3359.177121 0.0141 0.0142 0.0142 0.0142 0.0143 0.0144 0.0147 0.0151 0.0156 
3367.857165 0.0160 0.0164 0.0167 0.0169 0.0170 0.0173 0.0176 0.0179 0.0183 
3376.537209 0.0186 0.0190 0.0195 0.0202 0.0206 0.0211 0.0218 0.0226 0.0234 
3385.217254 0.0243 0.0254 0.0266 0.0278 0.0292 0.0307 0.0320 0.0330 0.0340 
3393.897298 0.0357 0.0374 0.0391 0.0410 0.0437 0.0469 0.0500 0.0531 0.0561 
3402.577342 0.0590 0.0621 0.0655 0.0691 0.0725 0.0758 0.0787 0.0809 0.0826 
3411.257386 0.0842 0.0853 0.0856 0.0851 0.0843 0.0830 0.0814 0.0794 0.0772 
3419.937431 0.0745 0.0714 0.0684 0.0655 0.0625 0.0596 0.0567 0.0538 0.0509 
3428.617475 0.0482 0.0458 0.0431 0.0404 0.0383 0.0369 0.0355 0.0338 0.0323 
3437.297519 0.0308 0.0290 0.0275 0.0263 0.0252 0.0242 0.0233 0.0228 0.0223 
3445.977563 0.0215 0.0203 0.0199 0.0202 0.0201 0.0199 0.0196 0.0194 0.0191 
3454.657608 0.0189 0.0188 0.0187 0.0188 0.0191 0.0194 0.0192 0.0187 0.0186 
3463.337652 0.0191 0.0196 0.0202 0.0207 0.0209 0.0210 0.0211 0.0209 0.0207 
3472.017696 0.0207 0.0207 0.0207 0.0207 0.0209 0.0212 0.0216 0.0220 0.0221 
3480.697740 0.0217 0.0212 0.0211 0.0217 0.0221 0.0222 0.0222 0.0220 0.0219 
3489.377784 0.0220 0.0221 0.0222 0.0224 0.0225 0.0225 0.0225 0.0226 0.0229 
3498.057829 0.0232 0.0233 0.0234 0.0238 0.0239 0.0232 0.0227 0.0232 0.0238 
3506.737873 0.0241 0.0242 0.0241 0.0240 0.0244 0.0249 0.0253 0.0257 0.0258 
3515.417917 0.0258 0.0259 0.0258 0.0256 0.0254 0.0255 0.0254 0.0250 0.0250 
3524.097961 0.0254 0.0253 0.0248 0.0243 0.0240 0.0240 0.0243 0.0247 0.0249 
3532.778006 0.0251 0.0250 0.0249 0.0248 0.0245 0.0242 0.0240 0.0239 0.0239 
3541.458050 0.0238 0.0234 0.0228 0.0225 0.0224 0.0222 0.0218 0.0216 0.0215 
3550.138094 0.0215 0.0206 0.0194 0.0194 0.0200 0.0201 0.0199 0.0196 0.0194 
3558.818138 0.0192 0.0188 0.0186 0.0184 0.0177 0.0168 0.0165 0.0153 0.0134 
3567.498183 0.0133 0.0143 0.0158 0.0164 0.0165 0.0165 0.0161 0.0155 0.0154 
3576.178227 0.0154 0.0151 0.0150 0.0148 0.0145 0.0146 0.0143 0.0137 0.0133 
3584.858271 0.0131 0.0117 0.0096 0.0091 0.0100 0.0115 0.0122 0.0123 0.0114 
3593.538315 0.0106 0.0102 0.0097 0.0101 0.0103 0.0097 0.0093 0.0085 0.0085 
3602.218360 0.0095 0.0102 0.0106 0.0105 0.0095 0.0080 0.0077 0.0075 0.0086 
3610.898404 0.0096 0.0085 0.0068 0.0072 0.0077 0.0089 0.0089 0.0070 0.0056 
3619.578448 0.0053 0.0067 0.0086 0.0097 0.0100 0.0100 0.0095 0.0084 0.0066 
3628.258492 0.0025 0.0010 0.0039 0.0076 0.0090 0.0084 0.0077 0.0090 0.0098 
3636.938537 0.0095 0.0089 0.0092 0.0099 0.0100 0.0096 0.0094 0.0097 0.0097 
3645.618581 0.0081 0.0043 0.0010 0.0007 0.0010 0.0010 0.0024 0.0074 0.0097 
3654.298625 0.0101 0.0085 0.0063 0.0081 0.0105 0.0112 0.0111 0.0114 0.0117 
3662.978669 0.0119 0.0120 0.0121 0.0123 0.0120 0.0104 0.0076 0.0055 0.0057 
3671.658714 0.0103 0.0132 0.0124 0.0072 0.0016 0.0093 0.0156 0.0181 0.0193 
3680.338758 0.0220 0.0254 0.0277 0.0292 0.0303 0.0314 0.0320 0.0304 0.0261 
3689.018802 0.0242 0.0243 0.0225 0.0233 0.0248 0.0243 0.0230 0.0216 0.0203 
3697.698846 0.0193 0.0184 0.0175 0.0155 0.0125 0.0122 0.0137 0.0141 0.0137 
3706.378890 0.0132 0.0126 0.0106 0.0075 0.0065 0.0051 0.0032 0.0073 0.0103 
3715.058935 0.0113 0.0115 0.0114 0.0105 0.0095 0.0098 0.0097 0.0078 0.0072 
3723.738979 0.0087 0.0090 0.0083 0.0081 0.0090 0.0098 0.0096 0.0082 0.0051 
3732.419023 0.0029 0.0040 0.0030 0.0008 0.0020 0.0039 0.0047 0.0061 0.0065 
3741.099067 0.0056 0.0057 0.0048 0.0003 0.0010 0.0025 0.0045 0.0041 0.0010 
3749.779112 0.0010 0.0010 0.0010 0.0013 0.0063 0.0087 0.0088 0.0080 0.0089 
3758.459156 0.0088 0.0065 0.0075 0.0103 0.0113 0.0112 0.0107 0.0091 0.0087 
3767.139200 0.0103 0.0105 0.0082 0.0062 0.0085 0.0107 0.0113 0.0114 0.0114 
3775.819244 0.0114 0.0113 0.0106 0.0086 0.0071 0.0094 0.0111 0.0113 0.0106 
3784.499289 0.0092 0.0092 0.0103 0.0107 0.0105 0.0103 0.0103 0.0101 0.0097 
3793.179333 0.0094 0.0091 0.0079 0.0050 0.0041 0.0059 0.0065 0.0044 0.0010 
3801.859377 0.0010 0.0011 0.0049 0.0065 0.0049 0.0014 0.0022 0.0057 0.0074 
3810.539421 0.0079 0.0080 0.0079 0.0075 0.0060 0.0023 0.0010 0.0029 0.0047 
3819.219466 0.0034 0.0010 0.0010 0.0010 0.0031 0.0046 0.0048 0.0036 0.0028 
3827.899510 0.0041 0.0055 0.0057 0.0039 0.0019 0.0033 0.0037 0.0017 0.0012 
3836.579554 0.0012 0.0010 0.0010 0.0010 0.0010 0.0021 0.0039 0.0031 0.0037 
3845.259598 0.0060 0.0073 0.0076 0.0074 0.0067 0.0057 0.0038 0.0010 0.0010 
3853.939643 0.0010 0.0009 0.0043 0.0052 0.0064 0.0078 0.0083 0.0074 0.0057 
3862.619687 0.0055 0.0050 0.0030 0.0036 0.0064 0.0073 0.0058 0.0018 0.0010 
3871.299731 0.0049 0.0068 0.0058 0.0039 0.0059 0.0083 0.0092 0.0092 0.0079 
3879.979775 0.0054 0.0051 0.0073 0.0079 0.0075 0.0063 0.0047 0.0062 0.0078 
3888.659820 0.0082 0.0077 0.0055 0.0036 0.0050 0.0065 0.0074 0.0078 0.0078 
3897.339864 0.0072 0.0056 0.0044 0.0051 0.0050 0.0044 0.0041 0.0034 0.0042 
3906.019908 0.0059 0.0074 0.0084 0.0088 0.0090 0.0092 0.0094 0.0094 0.0096 
3914.699952 0.0097 0.0094 0.0088 0.0091 0.0099 0.0098 0.0102 0.0112 0.0117 
3923.379996 0.0116 0.0113 0.0118 0.0132 0.0140 0.0140 0.0135 0.0137 0.0143 
3932.060041 0.0145 0.0148 0.0152 0.0155 0.0159 0.0161 0.0161 0.0163 0.0165 
3940.740085 0.0165 0.0162 0.0159 0.0164 0.0171 0.0173 0.0173 0.0175 0.0176 
3949.420129 0.0175 0.0176 0.0181 0.0181 0.0180 0.0183 0.0186 0.0184 0.0182 
3958.100173 0.0179 0.0177 0.0174 0.0169 0.0165 0.0161 0.0159 0.0157 0.0153 
3966.780218 0.0150 0.0148 0.0146 0.0145 0.0143 0.0141 0.0140 0.0139 0.0140 
3975.460262 0.0142 0.0142 0.0139 0.0137 0.0135 0.0134 0.0131 0.0127 0.0125 
3984.140306 0.0125 0.0125 0.0124 0.0126 0.0126 0.0126 0.0127 0.0126 0.0126 
3992.820350 0.0126 0.0125 0.0124 0.0127 0.0130 0.0132 0.0135 0.0137 0.0140 
##END=
