##JCAMP-DX=5.01
##FILENAME=KAM-09.jdx
##XUNITS=1/CM
##YUNITS=ABSORBANCE
##FIRSTX=399.282035
##LASTX=4000.535945
##MAXX=4000.535945
##MINX=399.282035
##FIRSTY=0.0109
##LASTY=0.0071
##MAXY=1.1153
##MINY=0.0000
##NPOINTS=3735
##XFACTOR=1
##YFACTOR=1
##XYDATA=(X++(Y..Y))
399.282035 0.0109 0.0073 0.0105 0.0100 0.0086 0.0042 0.0023 0.0038 0.0072 0.0088 
408.926529 0.0065 0.0051 0.0092 0.0096 0.0119 0.0128 0.0124 0.0107 0.0066 0.0023 
418.571022 0.0010 0.0010 0.0000 0.0054 0.0067 0.0051 0.0077 0.0098 0.0089 0.0105 
428.215516 0.0116 0.0107 0.0106 0.0115 0.0135 0.0147 0.0141 0.0127 0.0125 0.0115 
437.860009 0.0118 0.0136 0.0137 0.0117 0.0116 0.0133 0.0132 0.0121 0.0127 0.0138 
447.504503 0.0136 0.0120 0.0110 0.0103 0.0106 0.0106 0.0121 0.0145 0.0166 0.0155 
457.148997 0.0119 0.0101 0.0146 0.0162 0.0156 0.0144 0.0144 0.0142 0.0141 0.0140 
466.793490 0.0156 0.0163 0.0159 0.0161 0.0160 0.0151 0.0144 0.0146 0.0154 0.0158 
476.437984 0.0158 0.0152 0.0162 0.0172 0.0176 0.0169 0.0162 0.0172 0.0175 0.0168 
486.082477 0.0174 0.0174 0.0171 0.0167 0.0175 0.0173 0.0170 0.0164 0.0162 0.0158 
495.726971 0.0158 0.0156 0.0154 0.0157 0.0156 0.0147 0.0148 0.0151 0.0142 0.0138 
505.371465 0.0140 0.0142 0.0146 0.0142 0.0139 0.0144 0.0151 0.0143 0.0137 0.0136 
515.015958 0.0131 0.0124 0.0130 0.0132 0.0128 0.0123 0.0116 0.0112 0.0113 0.0112 
524.660452 0.0109 0.0105 0.0103 0.0101 0.0102 0.0099 0.0106 0.0127 0.0126 0.0107 
534.304945 0.0089 0.0086 0.0093 0.0092 0.0093 0.0098 0.0092 0.0087 0.0090 0.0092 
543.949439 0.0091 0.0091 0.0093 0.0092 0.0090 0.0091 0.0095 0.0093 0.0090 0.0088 
553.593933 0.0090 0.0089 0.0094 0.0095 0.0095 0.0093 0.0097 0.0101 0.0100 0.0095 
563.238426 0.0100 0.0106 0.0108 0.0105 0.0107 0.0114 0.0118 0.0118 0.0120 0.0122 
572.882920 0.0129 0.0137 0.0144 0.0149 0.0155 0.0155 0.0160 0.0168 0.0178 0.0181 
582.527413 0.0182 0.0182 0.0188 0.0192 0.0194 0.0197 0.0199 0.0202 0.0204 0.0203 
592.171907 0.0203 0.0203 0.0203 0.0201 0.0203 0.0207 0.0212 0.0218 0.0224 0.0222 
601.816401 0.0222 0.0224 0.0227 0.0230 0.0231 0.0230 0.0232 0.0230 0.0228 0.0223 
611.460894 0.0222 0.0222 0.0221 0.0218 0.0215 0.0212 0.0211 0.0208 0.0206 0.0205 
621.105388 0.0207 0.0208 0.0206 0.0206 0.0209 0.0211 0.0213 0.0213 0.0215 0.0215 
630.749881 0.0214 0.0216 0.0227 0.0234 0.0236 0.0234 0.0228 0.0226 0.0228 0.0225 
640.394375 0.0224 0.0222 0.0220 0.0217 0.0215 0.0214 0.0213 0.0211 0.0210 0.0209 
650.038869 0.0010 0.0010 0.0010 0.0010 0.0010 0.0010 0.0010 0.0010 0.0010 0.0010 
659.683362 0.0010 0.0010 0.0010 0.0010 0.0010 0.0010 0.0010 0.0010 0.0010 0.0010 
669.327856 0.0010 0.0010 0.0010 0.0010 0.0010 0.0010 0.0010 0.0010 0.0010 0.0010 
678.972349 0.0010 0.0010 0.0010 0.0010 0.0010 0.0010 0.0010 0.0010 0.0010 0.0010 
688.616843 0.0010 0.0010 0.0010 0.0010 0.0010 0.0010 0.0010 0.0010 0.0010 0.0010 
698.261337 0.0010 0.0010 0.0010 0.0010 0.0010 0.0010 0.0010 0.0010 0.0010 0.0010 
707.905830 0.0010 0.0010 0.0010 0.0010 0.0010 0.0010 0.0010 0.0010 0.0010 0.0010 
717.550324 0.0010 0.0010 0.0010 0.0010 0.0010 0.0010 0.0010 0.0010 0.0010 0.0010 
727.194817 0.0010 0.0010 0.0010 0.0010 0.0010 0.0010 0.0010 0.0010 0.0010 0.0010 
736.839311 0.0010 0.0010 0.0010 0.0010 0.0010 0.0010 0.0010 0.0010 0.0010 0.0010 
746.483805 0.0010 0.0010 0.0010 0.0010 0.0010 0.0010 0.0010 0.0010 0.0010 0.0010 
756.128298 0.0010 0.0010 0.0010 0.0010 0.0010 0.0010 0.0010 0.0010 0.0010 0.0010 
765.772792 0.0010 0.0010 0.0010 0.0010 0.0010 0.0010 0.0010 0.0010 0.0010 0.0010 
775.417285 0.0010 0.0010 0.0010 0.0010 0.0010 0.0010 0.0010 0.0010 0.0010 0.0010 
785.061779 0.0010 0.0010 0.0010 0.0010 0.0010 0.0010 0.0010 0.0010 0.0010 0.0010 
794.706273 0.0010 0.0010 0.0010 0.0010 0.0010 0.0010 0.0010 0.0010 0.0010 0.0010 
804.350766 0.0010 0.0010 0.0010 0.0010 0.0010 0.0010 0.0010 0.0010 0.0010 0.0010 
813.995260 0.0010 0.0010 0.0010 0.0010 0.0010 0.0010 0.0010 0.0010 0.0010 0.0010 
823.639753 0.0010 0.0010 0.0010 0.0010 0.0010 0.0010 0.0010 0.0010 0.0010 0.0010 
833.284247 0.0010 0.0010 0.0010 0.0010 0.0010 0.0010 0.0010 0.0010 0.0010 0.0010 
842.928741 0.0010 0.0010 0.0010 0.0010 0.0010 0.0010 0.0010 0.0010 0.0010 0.0010 
852.573234 0.0010 0.0010 0.0010 0.0010 0.0010 0.0010 0.0010 0.0010 0.0360 0.0366 
862.217728 0.0374 0.0380 0.0384 0.0387 0.0387 0.0386 0.0383 0.0375 0.0363 0.0346 
871.862221 0.0328 0.0307 0.0290 0.0277 0.0268 0.0258 0.0252 0.0249 0.0247 0.0246 
881.506715 0.0247 0.0247 0.0250 0.0251 0.0254 0.0258 0.0263 0.0266 0.0271 0.0276 
891.151209 0.0282 0.0290 0.0300 0.0312 0.0326 0.0341 0.0357 0.0374 0.0392 0.0407 
900.795702 0.0421 0.0433 0.0445 0.0456 0.0464 0.0469 0.0473 0.0475 0.0478 0.0482 
910.440196 0.0490 0.0498 0.0509 0.0517 0.0522 0.0522 0.0519 0.0516 0.0514 0.0513 
920.084689 0.0516 0.0519 0.0525 0.0534 0.0546 0.0560 0.0577 0.0596 0.0617 0.0637 
929.729183 0.0658 0.0676 0.0692 0.0705 0.0721 0.0738 0.0759 0.0781 0.0805 0.0824 
939.373677 0.0834 0.0832 0.0820 0.0799 0.0773 0.0744 0.0717 0.0689 0.0664 0.0643 
949.018170 0.0626 0.0607 0.0591 0.0576 0.0563 0.0552 0.0544 0.0535 0.0530 0.0525 
958.662664 0.0522 0.0519 0.0519 0.0518 0.0520 0.0520 0.0516 0.0504 0.0486 0.0464 
968.307157 0.0443 0.0427 0.0417 0.0410 0.0410 0.0413 0.0420 0.0428 0.0437 0.0443 
977.951651 0.0445 0.0439 0.0432 0.0423 0.0418 0.0416 0.0419 0.0423 0.0427 0.0425 
987.596145 0.0418 0.0403 0.0384 0.0363 0.0341 0.0321 0.0305 0.0290 0.0278 0.0269 
997.240638 0.0264 0.0261 0.0261 0.0263 0.0268 0.0278 0.0294 0.0313 0.0338 0.0368 
1006.885132 0.0403 0.0443 0.0488 0.0536 0.0590 0.0649 0.0713 0.0772 0.0821 
1015.565176 0.0852 0.0865 0.0859 0.0842 0.0820 0.0798 0.0777 0.0750 0.0709 
1024.245220 0.0654 0.0591 0.0532 0.0483 0.0445 0.0415 0.0391 0.0368 0.0347 
1032.925265 0.0325 0.0305 0.0284 0.0267 0.0252 0.0241 0.0232 0.0227 0.0221 
1041.605309 0.0218 0.0216 0.0217 0.0220 0.0225 0.0231 0.0242 0.0255 0.0273 
1050.285353 0.0293 0.0318 0.0344 0.0366 0.0379 0.0386 0.0386 0.0384 0.0382 
1058.965397 0.0382 0.0384 0.0390 0.0401 0.0419 0.0438 0.0452 0.0454 0.0443 
1067.645442 0.0424 0.0405 0.0388 0.0376 0.0369 0.0368 0.0370 0.0378 0.0389 
1076.325486 0.0404 0.0420 0.0440 0.0460 0.0483 0.0507 0.0535 0.0567 0.0606 
1085.005530 0.0651 0.0704 0.0765 0.0838 0.0919 0.1011 0.1110 0.1215 0.1319 
1093.685574 0.1417 0.1501 0.1568 0.1615 0.1647 0.1663 0.1667 0.1660 0.1649 
1102.365618 0.1637 0.1631 0.1631 0.1642 0.1656 0.1675 0.1691 0.1701 0.1701 
1111.045663 0.1689 0.1649 0.1570 0.1447 0.1298 0.1142 0.1002 0.0883 0.0789 
1119.725707 0.0715 0.0659 0.0614 0.0579 0.0553 0.0533 0.0517 0.0505 0.0496 
1128.405751 0.0490 0.0486 0.0486 0.0487 0.0490 0.0494 0.0500 0.0507 0.0517 
1137.085795 0.0528 0.0542 0.0555 0.0571 0.0588 0.0609 0.0632 0.0658 0.0685 
1145.765840 0.0717 0.0750 0.0789 0.0831 0.0879 0.0933 0.0994 0.1061 0.1135 
1154.445884 0.1218 0.1312 0.1414 0.1528 0.1653 0.1794 0.1949 0.2125 0.2319 
1163.125928 0.2537 0.2776 0.3036 0.3313 0.3606 0.3908 0.4214 0.4503 0.4767 
1171.805972 0.4976 0.5115 0.5160 0.5106 0.4953 0.4727 0.4451 0.4162 0.3879 
1180.486017 0.3626 0.3405 0.3226 0.3087 0.2991 0.2935 0.2925 0.2960 0.3041 
1189.166061 0.3161 0.3312 0.3475 0.3633 0.3757 0.3828 0.3827 0.3759 0.3631 
1197.846105 0.3467 0.3279 0.3094 0.2919 0.2764 0.2628 0.2515 0.2418 0.2343 
1206.526149 0.2284 0.2242 0.2215 0.2206 0.2216 0.2256 0.2330 0.2452 0.2620 
1215.206194 0.2804 0.2905 0.2857 0.2699 0.2534 0.2407 0.2321 0.2261 0.2222 
1223.886238 0.2193 0.2175 0.2162 0.2156 0.2152 0.2153 0.2154 0.2158 0.2161 
1232.566282 0.2169 0.2179 0.2192 0.2206 0.2224 0.2242 0.2263 0.2284 0.2310 
1241.246326 0.2337 0.2370 0.2406 0.2445 0.2485 0.2528 0.2569 0.2614 0.2663 
1249.926371 0.2720 0.2784 0.2857 0.2929 0.3001 0.3061 0.3109 0.3134 0.3142 
1258.606415 0.3130 0.3105 0.3064 0.3008 0.2938 0.2858 0.2767 0.2676 0.2586 
1267.286459 0.2503 0.2424 0.2349 0.2273 0.2201 0.2130 0.2066 0.2009 0.1963 
1275.966503 0.1921 0.1886 0.1853 0.1822 0.1790 0.1759 0.1726 0.1699 0.1675 
1284.646548 0.1658 0.1643 0.1633 0.1623 0.1610 0.1586 0.1556 0.1518 0.1476 
1293.326592 0.1432 0.1392 0.1355 0.1327 0.1304 0.1288 0.1274 0.1258 0.1236 
1302.006636 0.1220 0.1212 0.1217 0.1223 0.1231 0.1233 0.1239 0.1245 0.1254 
1310.686680 0.1258 0.1258 0.1253 0.1249 0.1249 0.1258 0.1275 0.1297 0.1312 
1319.366724 0.1317 0.1301 0.1270 0.1230 0.1193 0.1157 0.1130 0.1108 0.1098 
1328.046769 0.1095 0.1104 0.1120 0.1143 0.1170 0.1205 0.1240 0.1273 0.1295 
1336.726813 0.1300 0.1283 0.1258 0.1231 0.1207 0.1187 0.1182 0.1181 0.1183 
1345.406857 0.1183 0.1182 0.1176 0.1167 0.1152 0.1135 0.1117 0.1106 0.1101 
1354.086901 0.1110 0.1129 0.1156 0.1187 0.1226 0.1261 0.1295 0.1326 0.1353 
1362.766946 0.1364 0.1356 0.1327 0.1294 0.1249 0.1203 0.1151 0.1098 0.1051 
1371.446990 0.1009 0.0974 0.0947 0.0925 0.0914 0.0923 0.0962 0.1040 0.1137 
1380.127034 0.1221 0.1249 0.1198 0.1093 0.0977 0.0883 0.0815 0.0768 0.0719 
1388.807078 0.0683 0.0660 0.0643 0.0629 0.0620 0.0616 0.0620 0.0620 0.0620 
1397.487123 0.0625 0.0636 0.0651 0.0666 0.0684 0.0713 0.0745 0.0787 0.0849 
1406.167167 0.0911 0.0971 0.1049 0.1130 0.1214 0.1284 0.1343 0.1381 0.1410 
1414.847211 0.1428 0.1446 0.1459 0.1475 0.1481 0.1491 0.1471 0.1451 0.1424 
1423.527255 0.1402 0.1371 0.1354 0.1351 0.1370 0.1407 0.1472 0.1599 0.1754 
1432.207300 0.1953 0.2259 0.2626 0.2945 0.3166 0.3133 0.2903 0.2648 0.2390 
1440.887344 0.2190 0.2051 0.1947 0.1866 0.1797 0.1740 0.1699 0.1675 0.1657 
1449.567388 0.1659 0.1689 0.1747 0.1834 0.1910 0.1975 0.2020 0.2046 0.2022 
1458.247432 0.1986 0.1925 0.1889 0.1857 0.1830 0.1810 0.1835 0.1944 0.2034 
1466.927477 0.1995 0.1915 0.1775 0.1548 0.1302 0.1086 0.0864 0.0739 0.0654 
1475.607521 0.0611 0.0550 0.0506 0.0473 0.0446 0.0422 0.0403 0.0379 0.0362 
1484.287565 0.0347 0.0337 0.0328 0.0319 0.0307 0.0307 0.0300 0.0285 0.0271 
1492.967609 0.0264 0.0256 0.0253 0.0249 0.0245 0.0237 0.0233 0.0227 0.0010 
1501.647654 0.0010 0.0010 0.0010 0.0010 0.0010 0.0010 0.0010 0.0010 0.0010 
1510.327698 0.0010 0.0010 0.0010 0.0010 0.0010 0.0010 0.0010 0.0010 0.0010 
1519.007742 0.0010 0.0010 0.0010 0.0010 0.0010 0.0010 0.0010 0.0010 0.0010 
1527.687786 0.0010 0.0010 0.0010 0.0010 0.0010 0.0010 0.0010 0.0010 0.0010 
1536.367830 0.0010 0.0010 0.0010 0.0010 0.0010 0.0010 0.0010 0.0010 0.0010 
1545.047875 0.0010 0.0010 0.0010 0.0010 0.0010 0.0010 0.0010 0.0010 0.0010 
1553.727919 0.0010 0.0010 0.0010 0.0010 0.0010 0.0010 0.0010 0.0010 0.0010 
1562.407963 0.0010 0.0010 0.0010 0.0010 0.0010 0.0010 0.0010 0.0010 0.0010 
1571.088007 0.0010 0.0010 0.0010 0.0010 0.0010 0.0010 0.0010 0.0010 0.0010 
1579.768052 0.0010 0.0010 0.0010 0.0010 0.0010 0.0010 0.0010 0.0010 0.0010 
1588.448096 0.0010 0.0010 0.0010 0.0010 0.0010 0.0010 0.0010 0.0010 0.0010 
1597.128140 0.0010 0.0010 0.0010 0.0010 0.0010 0.0010 0.0010 0.0010 0.0010 
1605.808184 0.0010 0.0010 0.0010 0.0010 0.0010 0.0010 0.0010 0.0010 0.0010 
1614.488229 0.0010 0.0010 0.0010 0.0010 0.0010 0.0010 0.0010 0.0010 0.0010 
1623.168273 0.0010 0.0010 0.0010 0.0010 0.0010 0.0010 0.0010 0.0010 0.0010 
1631.848317 0.0010 0.0010 0.0010 0.0010 0.0010 0.0010 0.0010 0.0010 0.0010 
1640.528361 0.0010 0.0010 0.0010 0.0010 0.0010 0.0010 0.0010 0.0010 0.0010 
1649.208406 0.0010 0.0305 0.0311 0.0307 0.0320 0.0336 0.0346 0.0344 0.0351 
1657.888450 0.0355 0.0363 0.0370 0.0381 0.0387 0.0400 0.0407 0.0415 0.0422 
1666.568494 0.0435 0.0443 0.0459 0.0474 0.0489 0.0497 0.0516 0.0523 0.0536 
1675.248538 0.0556 0.0587 0.0596 0.0617 0.0636 0.0671 0.0697 0.0719 0.0739 
1683.928583 0.0795 0.0857 0.0898 0.0924 0.0981 0.1045 0.1115 0.1190 0.1274 
1692.608627 0.1357 0.1464 0.1547 0.1680 0.1933 0.2076 0.2207 0.2337 0.2704 
1701.288671 0.3241 0.3422 0.3730 0.4187 0.4797 0.5325 0.6100 0.6644 0.7134 
1709.968715 0.7579 0.7922 0.7974 0.7873 0.7574 0.7077 0.6401 0.6014 0.5470 
1718.648760 0.4829 0.4494 0.4299 0.4133 0.4047 0.4013 0.4051 0.4126 0.4278 
1727.328804 0.4475 0.4733 0.5002 0.5474 0.5919 0.6302 0.6737 0.7586 0.8474 
1736.008848 0.8901 0.9354 0.9940 1.0367 1.0872 1.1112 1.1153 1.1126 1.0955 
1744.688892 1.0600 1.0186 0.9646 0.9008 0.8232 0.7333 0.6743 0.5780 0.4970 
1753.368936 0.4435 0.3907 0.3463 0.3108 0.2698 0.2426 0.2196 0.2008 0.1854 
1762.048981 0.1676 0.1517 0.1420 0.1312 0.1227 0.1150 0.1092 0.1006 0.0957 
1770.729025 0.0908 0.0869 0.0810 0.0770 0.0736 0.0712 0.0675 0.0651 0.0625 
1779.409069 0.0608 0.0584 0.0566 0.0541 0.0526 0.0508 0.0496 0.0474 0.0462 
1788.089113 0.0446 0.0435 0.0423 0.0417 0.0402 0.0393 0.0376 0.0370 0.0362 
1796.769158 0.0354 0.0339 0.0333 0.0325 0.0321 0.0314 0.0310 0.0297 0.0291 
1805.449202 0.0283 0.0279 0.0273 0.0270 0.0261 0.0259 0.0253 0.0250 0.0241 
1814.129246 0.0237 0.0231 0.0229 0.0225 0.0223 0.0216 0.0214 0.0209 0.0208 
1822.809290 0.0205 0.0204 0.0202 0.0203 0.0196 0.0194 0.0191 0.0194 0.0190 
1831.489335 0.0187 0.0184 0.0184 0.0181 0.0180 0.0178 0.0179 0.0175 0.0174 
1840.169379 0.0172 0.0172 0.0173 0.0174 0.0174 0.0176 0.0170 0.0168 0.0168 
1848.849423 0.0167 0.0162 0.0161 0.0159 0.0159 0.0157 0.0158 0.0156 0.0156 
1857.529467 0.0154 0.0156 0.0154 0.0153 0.0152 0.0151 0.0149 0.0149 0.0148 
1866.209512 0.0150 0.0149 0.0152 0.0151 0.0149 0.0144 0.0142 0.0139 0.0138 
1874.889556 0.0136 0.0136 0.0134 0.0134 0.0132 0.0132 0.0130 0.0129 0.0128 
1883.569600 0.0128 0.0126 0.0126 0.0124 0.0123 0.0123 0.0126 0.0124 0.0121 
1892.249644 0.0119 0.0119 0.0118 0.0120 0.0117 0.0116 0.0114 0.0114 0.0112 
1900.929689 0.0112 0.0110 0.0110 0.0109 0.0109 0.0107 0.0107 0.0107 0.0108 
1909.609733 0.0108 0.0109 0.0105 0.0105 0.0104 0.0104 0.0104 0.0104 0.0104 
1918.289777 0.0107 0.0104 0.0103 0.0103 0.0106 0.0108 0.0105 0.0103 0.0103 
1926.969821 0.0102 0.0103 0.0103 0.0103 0.0102 0.0103 0.0103 0.0104 0.0104 
1935.649866 0.0105 0.0104 0.0106 0.0106 0.0106 0.0107 0.0110 0.0114 0.0114 
1944.329910 0.0110 0.0111 0.0111 0.0112 0.0112 0.0113 0.0113 0.0114 0.0113 
1953.009954 0.0113 0.0112 0.0113 0.0111 0.0111 0.0109 0.0108 0.0107 0.0108 
1961.689998 0.0107 0.0107 0.0106 0.0106 0.0106 0.0109 0.0109 0.0108 0.0105 
1970.370042 0.0105 0.0104 0.0105 0.0105 0.0105 0.0104 0.0105 0.0105 0.0105 
1979.050087 0.0105 0.0105 0.0105 0.0106 0.0105 0.0105 0.0105 0.0105 0.0105 
1987.730131 0.0106 0.0107 0.0106 0.0106 0.0110 0.0111 0.0109 0.0108 0.0109 
1996.410175 0.0109 0.0110 0.0111 0.0112 0.0112 0.0113 0.0113 0.0114 0.0115 
2005.090219 0.0116 0.0117 0.0118 0.0120 0.0121 0.0121 0.0123 0.0123 0.0124 
2013.770264 0.0124 0.0125 0.0126 0.0129 0.0129 0.0130 0.0128 0.0128 0.0128 
2022.450308 0.0130 0.0130 0.0131 0.0131 0.0132 0.0132 0.0133 0.0133 0.0134 
2031.130352 0.0133 0.0134 0.0133 0.0133 0.0132 0.0132 0.0131 0.0131 0.0129 
2039.810396 0.0129 0.0129 0.0129 0.0126 0.0125 0.0123 0.0123 0.0121 0.0121 
2048.490441 0.0120 0.0120 0.0118 0.0118 0.0118 0.0117 0.0117 0.0116 0.0115 
2057.170485 0.0115 0.0114 0.0114 0.0114 0.0114 0.0113 0.0113 0.0112 0.0114 
2065.850529 0.0112 0.0110 0.0108 0.0108 0.0107 0.0107 0.0105 0.0105 0.0104 
2074.530573 0.0104 0.0103 0.0103 0.0102 0.0102 0.0101 0.0102 0.0101 0.0101 
2083.210618 0.0100 0.0100 0.0099 0.0099 0.0098 0.0098 0.0098 0.0097 0.0096 
2091.890662 0.0095 0.0094 0.0093 0.0092 0.0091 0.0090 0.0090 0.0088 0.0088 
2100.570706 0.0087 0.0086 0.0085 0.0085 0.0084 0.0084 0.0084 0.0084 0.0084 
2109.250750 0.0084 0.0083 0.0084 0.0083 0.0083 0.0084 0.0084 0.0083 0.0083 
2117.930795 0.0083 0.0084 0.0083 0.0084 0.0083 0.0084 0.0084 0.0084 0.0084 
2126.610839 0.0085 0.0085 0.0085 0.0085 0.0086 0.0087 0.0087 0.0087 0.0088 
2135.290883 0.0088 0.0089 0.0090 0.0090 0.0090 0.0091 0.0090 0.0091 0.0091 
2143.970927 0.0091 0.0091 0.0092 0.0092 0.0093 0.0093 0.0093 0.0093 0.0094 
2152.650972 0.0094 0.0094 0.0094 0.0094 0.0095 0.0095 0.0095 0.0095 0.0095 
2161.331016 0.0096 0.0096 0.0096 0.0096 0.0096 0.0096 0.0096 0.0096 0.0097 
2170.011060 0.0096 0.0096 0.0096 0.0096 0.0096 0.0096 0.0095 0.0096 0.0095 
2178.691104 0.0095 0.0095 0.0095 0.0094 0.0094 0.0093 0.0093 0.0092 0.0092 
2187.371148 0.0091 0.0091 0.0090 0.0090 0.0090 0.0090 0.0089 0.0089 0.0088 
2196.051193 0.0088 0.0087 0.0087 0.0086 0.0086 0.0085 0.0085 0.0084 0.0084 
2204.731237 0.0083 0.0083 0.0082 0.0082 0.0082 0.0082 0.0081 0.0081 0.0081 
2213.411281 0.0081 0.0081 0.0082 0.0081 0.0082 0.0081 0.0081 0.0080 0.0080 
2222.091325 0.0079 0.0079 0.0079 0.0079 0.0078 0.0078 0.0077 0.0078 0.0078 
2230.771370 0.0078 0.0077 0.0077 0.0077 0.0078 0.0078 0.0078 0.0078 0.0079 
2239.451414 0.0079 0.0079 0.0079 0.0080 0.0080 0.0081 0.0081 0.0081 0.0082 
2248.131458 0.0082 0.0082 0.0083 0.0083 0.0084 0.0085 0.0086 0.0086 0.0087 
2256.811502 0.0087 0.0087 0.0087 0.0087 0.0087 0.0087 0.0088 0.0088 0.0088 
2265.491547 0.0089 0.0088 0.0089 0.0089 0.0089 0.0089 0.0089 0.0089 0.0090 
2274.171591 0.0089 0.0089 0.0089 0.0089 0.0088 0.0088 0.0088 0.0089 0.0088 
2282.851635 0.0089 0.0089 0.0089 0.0089 0.0089 0.0089 0.0089 0.0089 0.0089 
2291.531679 0.0090 0.0090 0.0091 0.0092 0.0092 0.0093 0.0092 0.0094 0.0093 
2300.211724 0.0094 0.0094 0.0095 0.0095 0.0096 0.0096 0.0096 0.0096 0.0097 
2308.891768 0.0096 0.0097 0.0096 0.0097 0.0096 0.0098 0.0096 0.0097 0.0096 
2317.571812 0.0097 0.0097 0.0098 0.0097 0.0097 0.0097 0.0097 0.0098 0.0098 
2326.251856 0.0097 0.0097 0.0096 0.0096 0.0097 0.0099 0.0099 0.0100 0.0101 
2334.931901 0.0102 0.0101 0.0102 0.0100 0.0099 0.0099 0.0100 0.0100 0.0100 
2343.611945 0.0101 0.0104 0.0105 0.0109 0.0112 0.0116 0.0115 0.0113 0.0111 
2352.291989 0.0109 0.0106 0.0105 0.0102 0.0102 0.0102 0.0102 0.0101 0.0101 
2360.972033 0.0103 0.0104 0.0102 0.0104 0.0106 0.0110 0.0110 0.0111 0.0114 
2369.652078 0.0117 0.0119 0.0121 0.0123 0.0125 0.0125 0.0126 0.0128 0.0130 
2378.332122 0.0131 0.0132 0.0133 0.0133 0.0133 0.0134 0.0134 0.0134 0.0134 
2387.012166 0.0134 0.0134 0.0134 0.0135 0.0135 0.0136 0.0137 0.0137 0.0138 
2395.692210 0.0140 0.0142 0.0144 0.0146 0.0148 0.0149 0.0149 0.0149 0.0148 
2404.372254 0.0147 0.0145 0.0144 0.0143 0.0143 0.0142 0.0142 0.0141 0.0142 
2413.052299 0.0141 0.0142 0.0142 0.0143 0.0143 0.0144 0.0144 0.0144 0.0145 
2421.732343 0.0146 0.0146 0.0147 0.0147 0.0148 0.0149 0.0150 0.0150 0.0151 
2430.412387 0.0152 0.0153 0.0155 0.0155 0.0156 0.0158 0.0159 0.0160 0.0161 
2439.092431 0.0162 0.0162 0.0163 0.0165 0.0166 0.0167 0.0168 0.0169 0.0169 
2447.772476 0.0170 0.0171 0.0172 0.0173 0.0174 0.0175 0.0176 0.0177 0.0178 
2456.452520 0.0179 0.0180 0.0181 0.0182 0.0183 0.0183 0.0185 0.0186 0.0187 
2465.132564 0.0189 0.0191 0.0192 0.0193 0.0194 0.0196 0.0197 0.0199 0.0200 
2473.812608 0.0201 0.0202 0.0204 0.0205 0.0207 0.0208 0.0209 0.0211 0.0212 
2482.492653 0.0213 0.0214 0.0215 0.0217 0.0218 0.0219 0.0220 0.0222 0.0223 
2491.172697 0.0224 0.0225 0.0226 0.0227 0.0229 0.0230 0.0232 0.0232 0.0234 
2499.852741 0.0235 0.0236 0.0238 0.0239 0.0241 0.0242 0.0243 0.0246 0.0247 
2508.532785 0.0249 0.0250 0.0252 0.0254 0.0256 0.0257 0.0258 0.0260 0.0262 
2517.212830 0.0263 0.0265 0.0267 0.0269 0.0271 0.0273 0.0275 0.0277 0.0279 
2525.892874 0.0281 0.0283 0.0285 0.0287 0.0290 0.0293 0.0295 0.0297 0.0300 
2534.572918 0.0303 0.0306 0.0308 0.0311 0.0313 0.0316 0.0319 0.0322 0.0324 
2543.252962 0.0327 0.0329 0.0332 0.0333 0.0336 0.0337 0.0339 0.0341 0.0343 
2551.933007 0.0345 0.0346 0.0347 0.0349 0.0350 0.0352 0.0353 0.0355 0.0356 
2560.613051 0.0358 0.0360 0.0362 0.0364 0.0366 0.0367 0.0369 0.0371 0.0373 
2569.293095 0.0375 0.0378 0.0379 0.0381 0.0383 0.0385 0.0387 0.0389 0.0390 
2577.973139 0.0392 0.0393 0.0394 0.0394 0.0395 0.0395 0.0396 0.0396 0.0397 
2586.653184 0.0398 0.0398 0.0399 0.0401 0.0402 0.0403 0.0405 0.0408 0.0409 
2595.333228 0.0411 0.0412 0.0414 0.0415 0.0418 0.0419 0.0421 0.0422 0.0423 
2604.013272 0.0424 0.0427 0.0428 0.0429 0.0430 0.0432 0.0432 0.0434 0.0434 
2612.693316 0.0435 0.0434 0.0435 0.0436 0.0436 0.0436 0.0436 0.0436 0.0437 
2621.373360 0.0437 0.0437 0.0437 0.0439 0.0439 0.0440 0.0441 0.0443 0.0444 
2630.053405 0.0446 0.0448 0.0450 0.0452 0.0454 0.0455 0.0458 0.0460 0.0462 
2638.733449 0.0463 0.0465 0.0466 0.0469 0.0471 0.0474 0.0475 0.0477 0.0480 
2647.413493 0.0484 0.0486 0.0489 0.0492 0.0496 0.0500 0.0503 0.0505 0.0508 
2656.093537 0.0510 0.0512 0.0514 0.0516 0.0518 0.0520 0.0522 0.0524 0.0525 
2664.773582 0.0526 0.0527 0.0528 0.0529 0.0531 0.0531 0.0531 0.0532 0.0533 
2673.453626 0.0533 0.0533 0.0531 0.0531 0.0529 0.0527 0.0524 0.0521 0.0518 
2682.133670 0.0515 0.0511 0.0508 0.0504 0.0501 0.0497 0.0494 0.0491 0.0489 
2690.813714 0.0485 0.0483 0.0481 0.0479 0.0476 0.0474 0.0472 0.0470 0.0468 
2699.493759 0.0467 0.0464 0.0463 0.0461 0.0460 0.0459 0.0458 0.0457 0.0456 
2708.173803 0.0454 0.0454 0.0454 0.0453 0.0452 0.0452 0.0452 0.0452 0.0452 
2716.853847 0.0452 0.0452 0.0452 0.0452 0.0453 0.0453 0.0454 0.0454 0.0455 
2725.533891 0.0457 0.0458 0.0459 0.0461 0.0464 0.0468 0.0472 0.0475 0.0479 
2734.213936 0.0483 0.0486 0.0488 0.0488 0.0489 0.0488 0.0487 0.0486 0.0486 
2742.893980 0.0485 0.0485 0.0483 0.0482 0.0481 0.0480 0.0478 0.0476 0.0475 
2751.574024 0.0475 0.0474 0.0473 0.0473 0.0473 0.0473 0.0473 0.0473 0.0474 
2760.254068 0.0475 0.0475 0.0475 0.0477 0.0478 0.0480 0.0480 0.0480 0.0481 
2768.934113 0.0483 0.0484 0.0485 0.0486 0.0487 0.0489 0.0490 0.0492 0.0493 
2777.614157 0.0495 0.0497 0.0499 0.0501 0.0504 0.0507 0.0509 0.0512 0.0515 
2786.294201 0.0519 0.0522 0.0525 0.0528 0.0531 0.0534 0.0538 0.0541 0.0544 
2794.974245 0.0547 0.0550 0.0554 0.0558 0.0562 0.0566 0.0570 0.0576 0.0579 
2803.654290 0.0584 0.0589 0.0594 0.0598 0.0604 0.0608 0.0614 0.0620 0.0626 
2812.334334 0.0632 0.0639 0.0646 0.0654 0.0661 0.0669 0.0677 0.0684 0.0691 
2821.014378 0.0699 0.0707 0.0715 0.0724 0.0734 0.0744 0.0755 0.0766 0.0778 
2829.694422 0.0789 0.0801 0.0812 0.0823 0.0834 0.0846 0.0861 0.0879 0.0902 
2838.374466 0.0930 0.0963 0.1002 0.1043 0.1084 0.1117 0.1141 0.1154 0.1159 
2847.054511 0.1161 0.1167 0.1179 0.1198 0.1226 0.1264 0.1311 0.1369 0.1436 
2855.734555 0.1513 0.1598 0.1693 0.1794 0.1900 0.2006 0.2110 0.2203 0.2286 
2864.414599 0.2354 0.2408 0.2446 0.2475 0.2499 0.2530 0.2575 0.2646 0.2743 
2873.094643 0.2862 0.2973 0.3042 0.3030 0.2931 0.2764 0.2572 0.2380 0.2210 
2881.774688 0.2066 0.1952 0.1861 0.1793 0.1740 0.1704 0.1676 0.1659 0.1648 
2890.454732 0.1645 0.1649 0.1659 0.1675 0.1698 0.1727 0.1765 0.1806 0.1853 
2899.134776 0.1901 0.1949 0.1993 0.2033 0.2067 0.2098 0.2126 0.2155 0.2182 
2907.814820 0.2211 0.2239 0.2270 0.2300 0.2331 0.2363 0.2400 0.2438 0.2481 
2916.494865 0.2528 0.2585 0.2646 0.2719 0.2799 0.2887 0.2981 0.3087 0.3201 
2925.174909 0.3326 0.3455 0.3597 0.3741 0.3890 0.4034 0.4171 0.4282 0.4368 
2933.854953 0.4417 0.4434 0.4412 0.4359 0.4276 0.4184 0.4087 0.4005 0.3935 
2942.534997 0.3889 0.3863 0.3870 0.3903 0.3972 0.4075 0.4219 0.4390 0.4586 
2951.215042 0.4774 0.4950 0.5103 0.5243 0.5373 0.5518 0.5670 0.5832 0.5974 
2959.895086 0.6092 0.6156 0.6170 0.6122 0.6028 0.5876 0.5683 0.5446 0.5185 
2968.575130 0.4902 0.4614 0.4323 0.4043 0.3776 0.3529 0.3300 0.3098 0.2913 
2977.255174 0.2747 0.2598 0.2469 0.2354 0.2254 0.2165 0.2090 0.2022 0.1966 
2985.935219 0.1917 0.1877 0.1844 0.1818 0.1794 0.1775 0.1758 0.1746 0.1733 
2994.615263 0.1719 0.1702 0.1683 0.1661 0.1639 0.1614 0.1588 0.1560 0.1533 
3003.295307 0.1506 0.1482 0.1458 0.1436 0.1416 0.1400 0.1385 0.1374 0.1367 
3011.975351 0.1363 0.1362 0.1366 0.1371 0.1380 0.1389 0.1400 0.1409 0.1419 
3020.655396 0.1426 0.1433 0.1435 0.1435 0.1431 0.1425 0.1414 0.1399 0.1381 
3029.335440 0.1362 0.1339 0.1318 0.1294 0.1272 0.1250 0.1229 0.1208 0.1191 
3038.015484 0.1174 0.1157 0.1142 0.1127 0.1114 0.1103 0.1092 0.1083 0.1073 
3046.695528 0.1065 0.1057 0.1050 0.1041 0.1034 0.1027 0.1022 0.1016 0.1009 
3055.375572 0.1003 0.0999 0.0994 0.0989 0.0984 0.0980 0.0976 0.0972 0.0967 
3064.055617 0.0965 0.0961 0.0957 0.0953 0.0951 0.0948 0.0946 0.0943 0.0940 
3072.735661 0.0938 0.0937 0.0934 0.0931 0.0929 0.0928 0.0926 0.0925 0.0924 
3081.415705 0.0923 0.0921 0.0919 0.0918 0.0918 0.0918 0.0917 0.0916 0.0914 
3090.095749 0.0913 0.0913 0.0912 0.0911 0.0910 0.0909 0.0907 0.0906 0.0904 
3098.775794 0.0901 0.0899 0.0898 0.0897 0.0895 0.0892 0.0890 0.0887 0.0885 
3107.455838 0.0881 0.0879 0.0876 0.0875 0.0871 0.0868 0.0864 0.0860 0.0857 
3116.135882 0.0854 0.0850 0.0847 0.0843 0.0840 0.0836 0.0833 0.0831 0.0827 
3124.815926 0.0822 0.0819 0.0815 0.0811 0.0806 0.0803 0.0799 0.0796 0.0792 
3133.495971 0.0788 0.0785 0.0782 0.0777 0.0774 0.0770 0.0767 0.0763 0.0760 
3142.176015 0.0756 0.0753 0.0749 0.0746 0.0742 0.0739 0.0737 0.0735 0.0731 
3150.856059 0.0728 0.0725 0.0722 0.0719 0.0718 0.0716 0.0713 0.0711 0.0709 
3159.536103 0.0707 0.0706 0.0703 0.0701 0.0698 0.0697 0.0695 0.0693 0.0691 
3168.216148 0.0689 0.0688 0.0686 0.0684 0.0683 0.0681 0.0680 0.0679 0.0677 
3176.896192 0.0674 0.0673 0.0672 0.0670 0.0668 0.0666 0.0665 0.0663 0.0661 
3185.576236 0.0659 0.0657 0.0656 0.0654 0.0653 0.0651 0.0650 0.0648 0.0647 
3194.256280 0.0645 0.0643 0.0642 0.0640 0.0638 0.0637 0.0635 0.0633 0.0631 
3202.936325 0.0629 0.0628 0.0627 0.0625 0.0624 0.0621 0.0619 0.0617 0.0616 
3211.616369 0.0613 0.0611 0.0609 0.0608 0.0606 0.0604 0.0601 0.0599 0.0598 
3220.296413 0.0596 0.0595 0.0593 0.0590 0.0588 0.0586 0.0585 0.0584 0.0582 
3228.976457 0.0579 0.0578 0.0576 0.0573 0.0571 0.0570 0.0568 0.0567 0.0565 
3237.656502 0.0563 0.0560 0.0559 0.0557 0.0555 0.0553 0.0552 0.0550 0.0548 
3246.336546 0.0546 0.0544 0.0542 0.0540 0.0538 0.0537 0.0535 0.0533 0.0530 
3255.016590 0.0530 0.0529 0.0527 0.0524 0.0522 0.0521 0.0519 0.0518 0.0516 
3263.696634 0.0513 0.0512 0.0511 0.0509 0.0507 0.0505 0.0503 0.0502 0.0500 
3272.376678 0.0498 0.0497 0.0495 0.0493 0.0493 0.0491 0.0489 0.0487 0.0485 
3281.056723 0.0483 0.0482 0.0479 0.0478 0.0476 0.0475 0.0473 0.0472 0.0470 
3289.736767 0.0468 0.0466 0.0465 0.0463 0.0462 0.0460 0.0458 0.0456 0.0454 
3298.416811 0.0453 0.0451 0.0449 0.0449 0.0447 0.0445 0.0444 0.0443 0.0440 
3307.096855 0.0439 0.0438 0.0437 0.0435 0.0433 0.0431 0.0430 0.0429 0.0426 
3315.776900 0.0424 0.0423 0.0421 0.0420 0.0418 0.0415 0.0414 0.0414 0.0412 
3324.456944 0.0410 0.0410 0.0409 0.0407 0.0405 0.0403 0.0402 0.0401 0.0399 
3333.136988 0.0397 0.0396 0.0394 0.0393 0.0391 0.0390 0.0388 0.0387 0.0385 
3341.817032 0.0384 0.0383 0.0382 0.0381 0.0378 0.0375 0.0374 0.0373 0.0373 
3350.497077 0.0371 0.0370 0.0369 0.0367 0.0365 0.0363 0.0362 0.0360 0.0358 
3359.177121 0.0357 0.0354 0.0352 0.0351 0.0350 0.0347 0.0345 0.0344 0.0343 
3367.857165 0.0341 0.0338 0.0336 0.0333 0.0331 0.0330 0.0327 0.0326 0.0324 
3376.537209 0.0322 0.0320 0.0318 0.0317 0.0315 0.0313 0.0312 0.0311 0.0309 
3385.217254 0.0308 0.0306 0.0304 0.0302 0.0301 0.0302 0.0302 0.0302 0.0300 
3393.897298 0.0297 0.0295 0.0294 0.0293 0.0292 0.0292 0.0293 0.0292 0.0290 
3402.577342 0.0286 0.0283 0.0281 0.0279 0.0278 0.0278 0.0279 0.0279 0.0275 
3411.257386 0.0275 0.0277 0.0274 0.0270 0.0267 0.0265 0.0264 0.0264 0.0265 
3419.937431 0.0266 0.0265 0.0262 0.0261 0.0260 0.0258 0.0258 0.0260 0.0262 
3428.617475 0.0262 0.0263 0.0263 0.0261 0.0261 0.0263 0.0266 0.0265 0.0265 
3437.297519 0.0264 0.0261 0.0259 0.0258 0.0258 0.0260 0.0261 0.0261 0.0262 
3445.977563 0.0264 0.0265 0.0265 0.0264 0.0264 0.0265 0.0266 0.0267 0.0268 
3454.657608 0.0269 0.0270 0.0270 0.0273 0.0276 0.0278 0.0277 0.0275 0.0274 
3463.337652 0.0275 0.0275 0.0276 0.0278 0.0278 0.0277 0.0275 0.0269 0.0263 
3472.017696 0.0258 0.0255 0.0253 0.0251 0.0248 0.0245 0.0245 0.0245 0.0243 
3480.697740 0.0238 0.0231 0.0227 0.0226 0.0226 0.0227 0.0227 0.0223 0.0221 
3489.377784 0.0218 0.0217 0.0216 0.0214 0.0215 0.0216 0.0215 0.0215 0.0214 
3498.057829 0.0213 0.0211 0.0209 0.0212 0.0218 0.0218 0.0210 0.0206 0.0206 
3506.737873 0.0204 0.0205 0.0207 0.0209 0.0209 0.0209 0.0211 0.0212 0.0211 
3515.417917 0.0210 0.0210 0.0212 0.0213 0.0214 0.0215 0.0216 0.0219 0.0226 
3524.097961 0.0229 0.0226 0.0224 0.0225 0.0227 0.0227 0.0227 0.0227 0.0226 
3532.778006 0.0226 0.0227 0.0229 0.0231 0.0232 0.0229 0.0226 0.0224 0.0222 
3541.458050 0.0220 0.0219 0.0219 0.0219 0.0221 0.0220 0.0215 0.0210 0.0204 
3550.138094 0.0202 0.0201 0.0201 0.0201 0.0199 0.0195 0.0191 0.0189 0.0188 
3558.818138 0.0187 0.0188 0.0190 0.0188 0.0185 0.0182 0.0183 0.0187 0.0194 
3567.498183 0.0190 0.0185 0.0178 0.0173 0.0171 0.0168 0.0167 0.0166 0.0165 
3576.178227 0.0164 0.0163 0.0162 0.0160 0.0160 0.0158 0.0156 0.0156 0.0155 
3584.858271 0.0153 0.0154 0.0160 0.0162 0.0157 0.0150 0.0144 0.0142 0.0141 
3593.538315 0.0142 0.0142 0.0142 0.0140 0.0137 0.0136 0.0136 0.0135 0.0135 
3602.218360 0.0134 0.0131 0.0129 0.0129 0.0129 0.0130 0.0131 0.0130 0.0131 
3610.898404 0.0128 0.0126 0.0128 0.0128 0.0126 0.0126 0.0122 0.0123 0.0123 
3619.578448 0.0121 0.0124 0.0121 0.0118 0.0116 0.0116 0.0115 0.0115 0.0115 
3628.258492 0.0115 0.0122 0.0120 0.0113 0.0110 0.0108 0.0110 0.0110 0.0108 
3636.938537 0.0106 0.0106 0.0107 0.0104 0.0104 0.0106 0.0108 0.0106 0.0104 
3645.618581 0.0105 0.0105 0.0111 0.0111 0.0111 0.0115 0.0111 0.0105 0.0099 
3654.298625 0.0098 0.0097 0.0098 0.0101 0.0098 0.0096 0.0097 0.0097 0.0097 
3662.978669 0.0099 0.0100 0.0100 0.0100 0.0101 0.0101 0.0104 0.0108 0.0109 
3671.658714 0.0113 0.0110 0.0108 0.0108 0.0113 0.0123 0.0123 0.0119 0.0119 
3680.338758 0.0122 0.0120 0.0120 0.0121 0.0123 0.0125 0.0125 0.0123 0.0122 
3689.018802 0.0130 0.0130 0.0130 0.0128 0.0120 0.0114 0.0111 0.0108 0.0104 
3697.698846 0.0100 0.0098 0.0097 0.0094 0.0093 0.0092 0.0087 0.0085 0.0085 
3706.378890 0.0083 0.0081 0.0079 0.0080 0.0083 0.0083 0.0085 0.0086 0.0080 
3715.058935 0.0078 0.0076 0.0073 0.0072 0.0075 0.0077 0.0074 0.0075 0.0080 
3723.738979 0.0078 0.0077 0.0080 0.0080 0.0079 0.0074 0.0071 0.0070 0.0068 
3732.419023 0.0075 0.0078 0.0078 0.0090 0.0085 0.0079 0.0076 0.0076 0.0074 
3741.099067 0.0073 0.0073 0.0069 0.0064 0.0081 0.0079 0.0074 0.0072 0.0068 
3749.779112 0.0072 0.0073 0.0070 0.0078 0.0074 0.0070 0.0066 0.0067 0.0069 
3758.459156 0.0066 0.0068 0.0071 0.0066 0.0063 0.0060 0.0059 0.0062 0.0068 
3767.139200 0.0065 0.0061 0.0059 0.0062 0.0064 0.0061 0.0059 0.0058 0.0058 
3775.819244 0.0057 0.0056 0.0057 0.0056 0.0059 0.0059 0.0056 0.0055 0.0054 
3784.499289 0.0057 0.0059 0.0057 0.0056 0.0055 0.0054 0.0053 0.0053 0.0053 
3793.179333 0.0053 0.0054 0.0053 0.0053 0.0057 0.0058 0.0056 0.0052 0.0050 
3801.859377 0.0056 0.0060 0.0057 0.0054 0.0051 0.0050 0.0058 0.0057 0.0055 
3810.539421 0.0055 0.0054 0.0053 0.0054 0.0054 0.0054 0.0063 0.0063 0.0060 
3819.219466 0.0059 0.0057 0.0061 0.0064 0.0059 0.0055 0.0056 0.0057 0.0060 
3827.899510 0.0062 0.0061 0.0059 0.0058 0.0062 0.0064 0.0060 0.0060 0.0066 
3836.579554 0.0063 0.0059 0.0066 0.0068 0.0070 0.0070 0.0066 0.0066 0.0072 
3845.259598 0.0068 0.0064 0.0062 0.0062 0.0065 0.0068 0.0065 0.0070 0.0077 
3853.939643 0.0070 0.0075 0.0071 0.0069 0.0070 0.0068 0.0067 0.0066 0.0069 
3862.619687 0.0072 0.0069 0.0071 0.0076 0.0070 0.0068 0.0068 0.0069 0.0079 
3871.299731 0.0077 0.0071 0.0067 0.0074 0.0074 0.0067 0.0065 0.0064 0.0064 
3879.979775 0.0068 0.0078 0.0072 0.0067 0.0068 0.0066 0.0070 0.0071 0.0063 
3888.659820 0.0060 0.0060 0.0061 0.0068 0.0070 0.0066 0.0066 0.0065 0.0063 
3897.339864 0.0063 0.0065 0.0069 0.0071 0.0065 0.0070 0.0068 0.0064 0.0070 
3906.019908 0.0070 0.0065 0.0061 0.0059 0.0058 0.0057 0.0058 0.0060 0.0059 
3914.699952 0.0057 0.0058 0.0063 0.0067 0.0062 0.0060 0.0063 0.0061 0.0060 
3923.379996 0.0062 0.0064 0.0063 0.0059 0.0058 0.0058 0.0059 0.0060 0.0061 
3932.060041 0.0064 0.0066 0.0062 0.0060 0.0058 0.0058 0.0057 0.0058 0.0058 
3940.740085 0.0058 0.0057 0.0063 0.0065 0.0061 0.0060 0.0060 0.0064 0.0065 
3949.420129 0.0063 0.0064 0.0063 0.0060 0.0060 0.0060 0.0060 0.0062 0.0063 
3958.100173 0.0063 0.0063 0.0065 0.0067 0.0070 0.0069 0.0067 0.0068 0.0068 
3966.780218 0.0067 0.0068 0.0070 0.0071 0.0070 0.0070 0.0071 0.0071 0.0071 
3975.460262 0.0073 0.0074 0.0072 0.0070 0.0071 0.0071 0.0071 0.0071 0.0072 
3984.140306 0.0071 0.0070 0.0070 0.0070 0.0070 0.0072 0.0073 0.0072 0.0071 
3992.820350 0.0070 0.0069 0.0070 0.0072 0.0072 0.0070 0.0069 0.0069 0.0071 
##END=
