##JCAMP-DX=5.01
##FILENAME=KAM-11.jdx
##XUNITS=1/CM
##YUNITS=ABSORBANCE
##FIRSTX=399.282035
##LASTX=4000.535945
##MAXX=4000.535945
##MINX=399.282035
##FIRSTY=0.0010
##LASTY=0.0033
##MAXY=0.5628
##MINY=0.0000
##NPOINTS=3735
##XFACTOR=1
##YFACTOR=1
##XYDATA=(X++(Y..Y))
399.282035 0.0010 0.0010 0.0016 0.0064 0.0053 0.0010 0.0010 0.0010 0.0010 0.0025 
408.926529 0.0014 0.0010 0.0010 0.0010 0.0023 0.0026 0.0010 0.0000 0.0011 0.0010 
418.571022 0.0010 0.0010 0.0010 0.0010 0.0010 0.0010 0.0002 0.0014 0.0006 0.0010 
428.215516 0.0010 0.0010 0.0003 0.0010 0.0010 0.0010 0.0010 0.0010 0.0008 0.0010 
437.860009 0.0010 0.0010 0.0010 0.0010 0.0010 0.0010 0.0016 0.0016 0.0004 0.0010 
447.504503 0.0010 0.0010 0.0010 0.0010 0.0010 0.0010 0.0010 0.0010 0.0010 0.0010 
457.148997 0.0010 0.0010 0.0013 0.0006 0.0010 0.0010 0.0010 0.0010 0.0010 0.0010 
466.793490 0.0010 0.0010 0.0010 0.0010 0.0010 0.0010 0.0010 0.0010 0.0010 0.0010 
476.437984 0.0010 0.0010 0.0010 0.0010 0.0010 0.0010 0.0010 0.0010 0.0010 0.0010 
486.082477 0.0000 0.0010 0.0010 0.0010 0.0010 0.0010 0.0010 0.0010 0.0010 0.0010 
495.726971 0.0010 0.0010 0.0010 0.0010 0.0010 0.0010 0.0010 0.0010 0.0010 0.0010 
505.371465 0.0010 0.0010 0.0010 0.0002 0.0005 0.0014 0.0013 0.0003 0.0010 0.0006 
515.015958 0.0008 0.0014 0.0017 0.0015 0.0015 0.0022 0.0020 0.0017 0.0015 0.0010 
524.660452 0.0004 0.0005 0.0006 0.0009 0.0010 0.0005 0.0003 0.0001 0.0010 0.0010 
534.304945 0.0010 0.0004 0.0008 0.0008 0.0006 0.0003 0.0001 0.0001 0.0010 0.0010 
543.949439 0.0010 0.0010 0.0010 0.0001 0.0010 0.0001 0.0007 0.0013 0.0011 0.0011 
553.593933 0.0015 0.0013 0.0006 0.0003 0.0003 0.0003 0.0010 0.0010 0.0010 0.0010 
563.238426 0.0010 0.0010 0.0010 0.0010 0.0010 0.0010 0.0010 0.0010 0.0010 0.0010 
572.882920 0.0010 0.0010 0.0010 0.0010 0.0010 0.0010 0.0010 0.0010 0.0010 0.0010 
582.527413 0.0010 0.0010 0.0010 0.0010 0.0010 0.0010 0.0010 0.0010 0.0010 0.0010 
592.171907 0.0010 0.0010 0.0010 0.0010 0.0010 0.0010 0.0010 0.0010 0.0010 0.0010 
601.816401 0.0010 0.0010 0.0010 0.0010 0.0010 0.0010 0.0010 0.0010 0.0010 0.0010 
611.460894 0.0010 0.0010 0.0010 0.0010 0.0010 0.0010 0.0010 0.0010 0.0010 0.0010 
621.105388 0.0010 0.0010 0.0010 0.0010 0.0010 0.0010 0.0010 0.0010 0.0010 0.0010 
630.749881 0.0010 0.0010 0.0010 0.0010 0.0010 0.0010 0.0010 0.0010 0.0010 0.0010 
640.394375 0.0010 0.0010 0.0010 0.0010 0.0010 0.0010 0.0010 0.0010 0.0010 0.0010 
650.038869 0.0010 0.0010 0.0010 0.0010 0.0010 0.0010 0.0010 0.0010 0.0010 0.0010 
659.683362 0.0010 0.0010 0.0010 0.0010 0.0010 0.0010 0.0010 0.0010 0.0010 0.0010 
669.327856 0.0010 0.0010 0.0010 0.0010 0.0010 0.0010 0.0010 0.0010 0.0010 0.0010 
678.972349 0.0010 0.0010 0.0010 0.0010 0.0010 0.0010 0.0010 0.0010 0.0010 0.0010 
688.616843 0.0010 0.0010 0.0010 0.0010 0.0010 0.0010 0.0010 0.0010 0.0010 0.0010 
698.261337 0.0010 0.0010 0.0010 0.0010 0.0010 0.0010 0.0010 0.0010 0.0010 0.0010 
707.905830 0.0010 0.0010 0.0010 0.0010 0.0010 0.0010 0.0010 0.0010 0.0010 0.0010 
717.550324 0.0010 0.0010 0.0010 0.0010 0.0010 0.0010 0.0010 0.0010 0.0010 0.0010 
727.194817 0.0010 0.0010 0.0010 0.0010 0.0010 0.0010 0.0010 0.0010 0.0010 0.0010 
736.839311 0.0010 0.0010 0.0010 0.0010 0.0010 0.0010 0.0010 0.0010 0.0010 0.0010 
746.483805 0.0010 0.0010 0.0010 0.0010 0.0010 0.0010 0.0010 0.0010 0.0010 0.0010 
756.128298 0.0010 0.0010 0.0010 0.0010 0.0010 0.0010 0.0010 0.0010 0.0010 0.0010 
765.772792 0.0010 0.0010 0.0010 0.0010 0.0010 0.0010 0.0010 0.0010 0.0010 0.0010 
775.417285 0.0010 0.0010 0.0010 0.0010 0.0010 0.0010 0.0010 0.0010 0.0010 0.0010 
785.061779 0.0010 0.0010 0.0010 0.0010 0.0010 0.0010 0.0010 0.0010 0.0010 0.0010 
794.706273 0.0010 0.0010 0.0010 0.0010 0.0010 0.0010 0.0010 0.0010 0.0010 0.0010 
804.350766 0.0010 0.0010 0.0010 0.0010 0.0010 0.0010 0.0010 0.0010 0.0010 0.0010 
813.995260 0.0010 0.0010 0.0010 0.0010 0.0010 0.0010 0.0010 0.0010 0.0010 0.0010 
823.639753 0.0010 0.0010 0.0010 0.0010 0.0010 0.0010 0.0010 0.0010 0.0010 0.0010 
833.284247 0.0010 0.0010 0.0010 0.0010 0.0010 0.0010 0.0010 0.0010 0.0010 0.0010 
842.928741 0.0010 0.0010 0.0010 0.0010 0.0010 0.0010 0.0010 0.0010 0.0010 0.0010 
852.573234 0.0010 0.0010 0.0010 0.0010 0.0010 0.0010 0.0010 0.0010 0.0009 0.0015 
862.217728 0.0019 0.0023 0.0025 0.0028 0.0029 0.0029 0.0027 0.0024 0.0021 0.0019 
871.862221 0.0018 0.0018 0.0018 0.0020 0.0021 0.0023 0.0025 0.0026 0.0026 0.0026 
881.506715 0.0025 0.0025 0.0022 0.0021 0.0020 0.0021 0.0023 0.0025 0.0025 0.0029 
891.151209 0.0034 0.0039 0.0044 0.0050 0.0058 0.0067 0.0075 0.0083 0.0089 0.0090 
900.795702 0.0085 0.0075 0.0064 0.0053 0.0040 0.0030 0.0024 0.0019 0.0017 0.0015 
910.440196 0.0012 0.0012 0.0012 0.0012 0.0013 0.0014 0.0015 0.0017 0.0019 0.0021 
920.084689 0.0024 0.0027 0.0031 0.0037 0.0042 0.0051 0.0059 0.0066 0.0074 0.0081 
929.729183 0.0086 0.0088 0.0089 0.0088 0.0085 0.0081 0.0077 0.0075 0.0071 0.0068 
939.373677 0.0066 0.0066 0.0068 0.0071 0.0074 0.0077 0.0081 0.0085 0.0091 0.0099 
949.018170 0.0109 0.0120 0.0134 0.0150 0.0168 0.0187 0.0205 0.0223 0.0239 0.0254 
958.662664 0.0270 0.0284 0.0296 0.0301 0.0296 0.0282 0.0263 0.0244 0.0225 0.0209 
968.307157 0.0195 0.0185 0.0179 0.0177 0.0178 0.0180 0.0181 0.0181 0.0184 0.0192 
977.951651 0.0203 0.0214 0.0225 0.0230 0.0227 0.0216 0.0202 0.0188 0.0176 0.0168 
987.596145 0.0164 0.0164 0.0166 0.0170 0.0174 0.0177 0.0178 0.0179 0.0178 0.0175 
997.240638 0.0170 0.0166 0.0159 0.0153 0.0147 0.0144 0.0143 0.0144 0.0148 0.0156 
1006.885132 0.0166 0.0176 0.0181 0.0183 0.0183 0.0182 0.0180 0.0176 0.0172 
1015.565176 0.0167 0.0164 0.0162 0.0162 0.0163 0.0164 0.0163 0.0159 0.0155 
1024.245220 0.0149 0.0142 0.0135 0.0128 0.0123 0.0121 0.0122 0.0128 0.0138 
1032.925265 0.0154 0.0178 0.0208 0.0244 0.0285 0.0325 0.0358 0.0375 0.0375 
1041.605309 0.0359 0.0335 0.0312 0.0292 0.0277 0.0267 0.0261 0.0262 0.0268 
1050.285353 0.0278 0.0290 0.0300 0.0305 0.0302 0.0293 0.0284 0.0277 0.0276 
1058.965397 0.0280 0.0286 0.0292 0.0297 0.0303 0.0312 0.0323 0.0335 0.0348 
1067.645442 0.0361 0.0374 0.0384 0.0390 0.0393 0.0393 0.0392 0.0390 0.0389 
1076.325486 0.0389 0.0391 0.0396 0.0403 0.0413 0.0426 0.0442 0.0463 0.0489 
1085.005530 0.0519 0.0555 0.0597 0.0646 0.0704 0.0773 0.0854 0.0948 0.1055 
1093.685574 0.1172 0.1297 0.1427 0.1558 0.1685 0.1803 0.1911 0.2008 0.2096 
1102.365618 0.2180 0.2264 0.2346 0.2422 0.2485 0.2527 0.2546 0.2547 0.2541 
1111.045663 0.2541 0.2563 0.2619 0.2713 0.2839 0.2976 0.3099 0.3189 0.3245 
1119.725707 0.3270 0.3268 0.3243 0.3198 0.3133 0.3054 0.2956 0.2844 0.2715 
1128.405751 0.2573 0.2421 0.2264 0.2105 0.1953 0.1812 0.1684 0.1566 0.1453 
1137.085795 0.1345 0.1241 0.1146 0.1063 0.0991 0.0930 0.0881 0.0844 0.0813 
1145.765840 0.0788 0.0766 0.0746 0.0728 0.0711 0.0696 0.0683 0.0670 0.0656 
1154.445884 0.0640 0.0622 0.0604 0.0585 0.0566 0.0546 0.0525 0.0501 0.0474 
1163.125928 0.0444 0.0413 0.0382 0.0352 0.0325 0.0300 0.0280 0.0264 0.0250 
1171.805972 0.0238 0.0227 0.0216 0.0203 0.0188 0.0174 0.0161 0.0150 0.0141 
1180.486017 0.0133 0.0126 0.0120 0.0115 0.0109 0.0104 0.0100 0.0095 0.0090 
1189.166061 0.0086 0.0082 0.0079 0.0075 0.0071 0.0067 0.0064 0.0061 0.0058 
1197.846105 0.0056 0.0053 0.0050 0.0048 0.0045 0.0043 0.0042 0.0040 0.0038 
1206.526149 0.0037 0.0035 0.0034 0.0034 0.0034 0.0034 0.0034 0.0036 0.0037 
1215.206194 0.0040 0.0043 0.0048 0.0055 0.0062 0.0071 0.0080 0.0090 0.0102 
1223.886238 0.0115 0.0129 0.0143 0.0159 0.0178 0.0199 0.0223 0.0246 0.0266 
1232.566282 0.0277 0.0280 0.0274 0.0260 0.0239 0.0215 0.0192 0.0173 0.0157 
1241.246326 0.0147 0.0140 0.0136 0.0135 0.0135 0.0137 0.0138 0.0138 0.0138 
1249.926371 0.0139 0.0142 0.0145 0.0149 0.0153 0.0156 0.0157 0.0158 0.0157 
1258.606415 0.0156 0.0155 0.0154 0.0155 0.0158 0.0162 0.0166 0.0171 0.0174 
1267.286459 0.0176 0.0175 0.0169 0.0160 0.0150 0.0138 0.0126 0.0116 0.0106 
1275.966503 0.0098 0.0091 0.0086 0.0082 0.0080 0.0078 0.0077 0.0077 0.0077 
1284.646548 0.0078 0.0080 0.0083 0.0086 0.0090 0.0095 0.0101 0.0108 0.0117 
1293.326592 0.0126 0.0137 0.0147 0.0160 0.0175 0.0187 0.0197 0.0202 0.0204 
1302.006636 0.0206 0.0208 0.0207 0.0203 0.0195 0.0185 0.0172 0.0156 0.0137 
1310.686680 0.0121 0.0107 0.0098 0.0091 0.0088 0.0086 0.0087 0.0089 0.0091 
1319.366724 0.0092 0.0088 0.0084 0.0079 0.0076 0.0074 0.0072 0.0071 0.0072 
1328.046769 0.0074 0.0076 0.0082 0.0090 0.0103 0.0119 0.0138 0.0158 0.0173 
1336.726813 0.0180 0.0177 0.0168 0.0158 0.0151 0.0147 0.0144 0.0142 0.0143 
1345.406857 0.0149 0.0160 0.0173 0.0189 0.0209 0.0231 0.0255 0.0279 0.0307 
1354.086901 0.0343 0.0391 0.0443 0.0480 0.0492 0.0490 0.0491 0.0507 0.0532 
1362.766946 0.0555 0.0574 0.0578 0.0582 0.0590 0.0603 0.0623 0.0649 0.0675 
1371.446990 0.0699 0.0718 0.0735 0.0757 0.0789 0.0829 0.0874 0.0902 0.0877 
1380.127034 0.0795 0.0691 0.0584 0.0489 0.0411 0.0350 0.0305 0.0271 0.0237 
1388.807078 0.0215 0.0200 0.0187 0.0178 0.0170 0.0165 0.0162 0.0158 0.0152 
1397.487123 0.0147 0.0142 0.0137 0.0133 0.0130 0.0127 0.0126 0.0126 0.0128 
1406.167167 0.0130 0.0133 0.0137 0.0143 0.0150 0.0155 0.0154 0.0150 0.0144 
1414.847211 0.0137 0.0131 0.0126 0.0122 0.0119 0.0115 0.0113 0.0113 0.0115 
1423.527255 0.0118 0.0124 0.0130 0.0139 0.0153 0.0173 0.0199 0.0250 0.0305 
1432.207300 0.0360 0.0398 0.0392 0.0356 0.0321 0.0273 0.0254 0.0245 0.0241 
1440.887344 0.0240 0.0246 0.0258 0.0276 0.0300 0.0333 0.0367 0.0416 0.0489 
1449.567388 0.0545 0.0586 0.0617 0.0663 0.0728 0.0812 0.0910 0.0997 0.1062 
1458.247432 0.1061 0.1029 0.1020 0.1027 0.1059 0.1110 0.1179 0.1303 0.1379 
1466.927477 0.1302 0.1140 0.0962 0.0825 0.0721 0.0633 0.0535 0.0472 0.0424 
1475.607521 0.0396 0.0359 0.0341 0.0337 0.0341 0.0345 0.0351 0.0355 0.0359 
1484.287565 0.0357 0.0346 0.0321 0.0278 0.0229 0.0200 0.0162 0.0134 0.0118 
1492.967609 0.0109 0.0098 0.0089 0.0080 0.0072 0.0067 0.0064 0.0057 0.0010 
1501.647654 0.0010 0.0010 0.0010 0.0010 0.0010 0.0010 0.0010 0.0010 0.0010 
1510.327698 0.0010 0.0010 0.0010 0.0010 0.0010 0.0010 0.0010 0.0010 0.0010 
1519.007742 0.0010 0.0010 0.0010 0.0010 0.0010 0.0010 0.0010 0.0010 0.0010 
1527.687786 0.0010 0.0010 0.0010 0.0010 0.0010 0.0010 0.0010 0.0010 0.0010 
1536.367830 0.0010 0.0010 0.0010 0.0010 0.0010 0.0010 0.0010 0.0010 0.0010 
1545.047875 0.0010 0.0010 0.0010 0.0010 0.0010 0.0010 0.0010 0.0010 0.0010 
1553.727919 0.0010 0.0010 0.0010 0.0010 0.0010 0.0010 0.0010 0.0010 0.0010 
1562.407963 0.0010 0.0010 0.0010 0.0010 0.0010 0.0010 0.0010 0.0010 0.0010 
1571.088007 0.0010 0.0010 0.0010 0.0010 0.0010 0.0010 0.0010 0.0010 0.0010 
1579.768052 0.0010 0.0010 0.0010 0.0010 0.0010 0.0010 0.0010 0.0010 0.0010 
1588.448096 0.0010 0.0010 0.0010 0.0010 0.0010 0.0010 0.0010 0.0010 0.0010 
1597.128140 0.0010 0.0010 0.0010 0.0010 0.0010 0.0010 0.0010 0.0010 0.0010 
1605.808184 0.0010 0.0010 0.0010 0.0010 0.0010 0.0010 0.0010 0.0010 0.0010 
1614.488229 0.0010 0.0010 0.0010 0.0010 0.0010 0.0010 0.0010 0.0010 0.0010 
1623.168273 0.0010 0.0010 0.0010 0.0010 0.0010 0.0010 0.0010 0.0010 0.0010 
1631.848317 0.0010 0.0010 0.0010 0.0010 0.0010 0.0010 0.0010 0.0010 0.0010 
1640.528361 0.0010 0.0010 0.0010 0.0010 0.0010 0.0010 0.0010 0.0010 0.0010 
1649.208406 0.0010 0.0000 0.0010 0.0010 0.0010 0.0010 0.0010 0.0010 0.0010 
1657.888450 0.0010 0.0000 0.0000 0.0000 0.0010 0.0010 0.0010 0.0000 0.0001 
1666.568494 0.0002 0.0001 0.0010 0.0010 0.0001 0.0001 0.0003 0.0003 0.0002 
1675.248538 0.0002 0.0004 0.0004 0.0004 0.0003 0.0004 0.0005 0.0005 0.0005 
1683.928583 0.0004 0.0003 0.0005 0.0005 0.0007 0.0007 0.0006 0.0006 0.0007 
1692.608627 0.0008 0.0008 0.0008 0.0008 0.0007 0.0008 0.0009 0.0009 0.0012 
1701.288671 0.0014 0.0014 0.0015 0.0016 0.0018 0.0019 0.0021 0.0023 0.0025 
1709.968715 0.0027 0.0028 0.0028 0.0029 0.0029 0.0031 0.0032 0.0031 0.0028 
1718.648760 0.0027 0.0029 0.0030 0.0030 0.0030 0.0032 0.0033 0.0036 0.0040 
1727.328804 0.0043 0.0047 0.0051 0.0055 0.0057 0.0058 0.0059 0.0058 0.0053 
1736.008848 0.0050 0.0049 0.0046 0.0044 0.0040 0.0036 0.0033 0.0031 0.0029 
1744.688892 0.0026 0.0023 0.0021 0.0018 0.0015 0.0014 0.0014 0.0014 0.0012 
1753.368936 0.0011 0.0010 0.0009 0.0008 0.0008 0.0008 0.0007 0.0006 0.0006 
1762.048981 0.0006 0.0005 0.0004 0.0004 0.0003 0.0003 0.0003 0.0003 0.0001 
1770.729025 0.0001 0.0010 0.0010 0.0000 0.0010 0.0010 0.0010 0.0010 0.0000 
1779.409069 0.0001 0.0010 0.0010 0.0010 0.0010 0.0010 0.0000 0.0010 0.0010 
1788.089113 0.0010 0.0000 0.0000 0.0001 0.0001 0.0001 0.0001 0.0001 0.0003 
1796.769158 0.0003 0.0003 0.0002 0.0002 0.0003 0.0004 0.0005 0.0004 0.0003 
1805.449202 0.0004 0.0004 0.0004 0.0004 0.0003 0.0003 0.0003 0.0004 0.0004 
1814.129246 0.0004 0.0004 0.0004 0.0005 0.0005 0.0004 0.0004 0.0005 0.0005 
1822.809290 0.0005 0.0005 0.0005 0.0005 0.0005 0.0005 0.0005 0.0005 0.0006 
1831.489335 0.0006 0.0006 0.0007 0.0006 0.0006 0.0006 0.0007 0.0007 0.0006 
1840.169379 0.0006 0.0006 0.0007 0.0007 0.0007 0.0006 0.0006 0.0006 0.0007 
1848.849423 0.0006 0.0006 0.0007 0.0007 0.0006 0.0006 0.0007 0.0006 0.0006 
1857.529467 0.0006 0.0005 0.0005 0.0005 0.0005 0.0005 0.0004 0.0004 0.0003 
1866.209512 0.0003 0.0003 0.0003 0.0002 0.0003 0.0002 0.0002 0.0001 0.0000 
1874.889556 0.0000 0.0000 0.0010 0.0010 0.0010 0.0010 0.0010 0.0010 0.0010 
1883.569600 0.0010 0.0000 0.0000 0.0000 0.0010 0.0010 0.0001 0.0001 0.0001 
1892.249644 0.0001 0.0001 0.0001 0.0002 0.0002 0.0002 0.0002 0.0003 0.0003 
1900.929689 0.0003 0.0003 0.0004 0.0004 0.0004 0.0005 0.0005 0.0006 0.0006 
1909.609733 0.0006 0.0006 0.0006 0.0006 0.0006 0.0007 0.0007 0.0007 0.0008 
1918.289777 0.0009 0.0009 0.0009 0.0010 0.0011 0.0012 0.0012 0.0012 0.0013 
1926.969821 0.0014 0.0014 0.0015 0.0015 0.0015 0.0016 0.0016 0.0016 0.0016 
1935.649866 0.0017 0.0017 0.0017 0.0017 0.0018 0.0018 0.0018 0.0019 0.0019 
1944.329910 0.0018 0.0019 0.0018 0.0018 0.0018 0.0018 0.0018 0.0018 0.0018 
1953.009954 0.0017 0.0017 0.0017 0.0017 0.0017 0.0017 0.0016 0.0015 0.0016 
1961.689998 0.0016 0.0015 0.0015 0.0015 0.0015 0.0015 0.0015 0.0015 0.0014 
1970.370042 0.0013 0.0012 0.0012 0.0011 0.0011 0.0011 0.0010 0.0009 0.0009 
1979.050087 0.0009 0.0009 0.0008 0.0007 0.0006 0.0006 0.0006 0.0006 0.0006 
1987.730131 0.0006 0.0006 0.0005 0.0005 0.0006 0.0006 0.0005 0.0005 0.0004 
1996.410175 0.0004 0.0004 0.0004 0.0004 0.0004 0.0004 0.0003 0.0004 0.0004 
2005.090219 0.0004 0.0004 0.0004 0.0004 0.0004 0.0004 0.0004 0.0004 0.0005 
2013.770264 0.0005 0.0005 0.0005 0.0007 0.0007 0.0007 0.0006 0.0007 0.0007 
2022.450308 0.0008 0.0009 0.0010 0.0010 0.0011 0.0012 0.0013 0.0013 0.0014 
2031.130352 0.0014 0.0015 0.0016 0.0016 0.0017 0.0016 0.0017 0.0017 0.0017 
2039.810396 0.0017 0.0017 0.0017 0.0017 0.0018 0.0018 0.0019 0.0019 0.0019 
2048.490441 0.0020 0.0020 0.0021 0.0021 0.0021 0.0021 0.0022 0.0022 0.0022 
2057.170485 0.0022 0.0023 0.0023 0.0024 0.0024 0.0024 0.0024 0.0025 0.0026 
2065.850529 0.0026 0.0026 0.0026 0.0026 0.0027 0.0027 0.0027 0.0028 0.0029 
2074.530573 0.0029 0.0029 0.0030 0.0030 0.0030 0.0030 0.0030 0.0030 0.0030 
2083.210618 0.0029 0.0029 0.0029 0.0028 0.0028 0.0027 0.0027 0.0027 0.0027 
2091.890662 0.0026 0.0026 0.0026 0.0026 0.0026 0.0025 0.0025 0.0024 0.0023 
2100.570706 0.0023 0.0022 0.0021 0.0020 0.0020 0.0020 0.0019 0.0019 0.0018 
2109.250750 0.0017 0.0016 0.0016 0.0015 0.0015 0.0015 0.0015 0.0015 0.0014 
2117.930795 0.0013 0.0013 0.0013 0.0012 0.0012 0.0012 0.0012 0.0011 0.0010 
2126.610839 0.0010 0.0010 0.0010 0.0009 0.0009 0.0009 0.0009 0.0009 0.0009 
2135.290883 0.0009 0.0009 0.0009 0.0008 0.0008 0.0008 0.0008 0.0008 0.0008 
2143.970927 0.0007 0.0007 0.0007 0.0007 0.0008 0.0008 0.0007 0.0008 0.0008 
2152.650972 0.0008 0.0008 0.0009 0.0009 0.0009 0.0010 0.0010 0.0010 0.0011 
2161.331016 0.0011 0.0012 0.0012 0.0013 0.0013 0.0013 0.0014 0.0014 0.0014 
2170.011060 0.0014 0.0015 0.0015 0.0015 0.0015 0.0015 0.0015 0.0014 0.0014 
2178.691104 0.0014 0.0014 0.0014 0.0014 0.0014 0.0014 0.0014 0.0014 0.0014 
2187.371148 0.0014 0.0014 0.0015 0.0015 0.0015 0.0014 0.0015 0.0014 0.0014 
2196.051193 0.0014 0.0015 0.0014 0.0014 0.0014 0.0014 0.0015 0.0014 0.0014 
2204.731237 0.0014 0.0013 0.0013 0.0013 0.0013 0.0012 0.0012 0.0012 0.0012 
2213.411281 0.0012 0.0012 0.0012 0.0012 0.0011 0.0010 0.0011 0.0011 0.0010 
2222.091325 0.0010 0.0010 0.0010 0.0009 0.0009 0.0009 0.0009 0.0008 0.0008 
2230.771370 0.0008 0.0008 0.0008 0.0007 0.0007 0.0008 0.0008 0.0007 0.0007 
2239.451414 0.0007 0.0007 0.0007 0.0007 0.0007 0.0007 0.0007 0.0007 0.0006 
2248.131458 0.0007 0.0007 0.0007 0.0007 0.0007 0.0007 0.0007 0.0006 0.0006 
2256.811502 0.0006 0.0006 0.0006 0.0006 0.0006 0.0006 0.0006 0.0006 0.0005 
2265.491547 0.0005 0.0005 0.0005 0.0005 0.0005 0.0005 0.0005 0.0005 0.0005 
2274.171591 0.0005 0.0005 0.0006 0.0006 0.0005 0.0005 0.0006 0.0006 0.0005 
2282.851635 0.0006 0.0006 0.0005 0.0004 0.0002 0.0001 0.0010 0.0010 0.0010 
2291.531679 0.0010 0.0010 0.0010 0.0010 0.0010 0.0010 0.0010 0.0010 0.0010 
2300.211724 0.0010 0.0010 0.0010 0.0010 0.0010 0.0010 0.0010 0.0010 0.0010 
2308.891768 0.0010 0.0010 0.0010 0.0010 0.0010 0.0010 0.0010 0.0010 0.0010 
2317.571812 0.0010 0.0010 0.0010 0.0010 0.0010 0.0010 0.0010 0.0010 0.0010 
2326.251856 0.0010 0.0010 0.0010 0.0010 0.0010 0.0010 0.0010 0.0010 0.0010 
2334.931901 0.0010 0.0010 0.0010 0.0010 0.0010 0.0010 0.0010 0.0010 0.0010 
2343.611945 0.0010 0.0010 0.0010 0.0010 0.0010 0.0010 0.0010 0.0010 0.0010 
2352.291989 0.0010 0.0010 0.0010 0.0010 0.0010 0.0010 0.0010 0.0010 0.0010 
2360.972033 0.0010 0.0010 0.0010 0.0010 0.0010 0.0010 0.0010 0.0010 0.0010 
2369.652078 0.0010 0.0010 0.0010 0.0010 0.0010 0.0010 0.0010 0.0010 0.0010 
2378.332122 0.0010 0.0010 0.0010 0.0010 0.0010 0.0010 0.0003 0.0007 0.0010 
2387.012166 0.0013 0.0015 0.0017 0.0017 0.0017 0.0017 0.0018 0.0018 0.0018 
2395.692210 0.0018 0.0018 0.0019 0.0019 0.0018 0.0018 0.0018 0.0019 0.0019 
2404.372254 0.0019 0.0018 0.0018 0.0017 0.0017 0.0018 0.0018 0.0018 0.0018 
2413.052299 0.0019 0.0018 0.0018 0.0018 0.0018 0.0018 0.0017 0.0017 0.0017 
2421.732343 0.0017 0.0017 0.0016 0.0016 0.0015 0.0015 0.0015 0.0016 0.0016 
2430.412387 0.0016 0.0016 0.0016 0.0015 0.0014 0.0015 0.0015 0.0014 0.0014 
2439.092431 0.0014 0.0014 0.0013 0.0013 0.0013 0.0012 0.0012 0.0012 0.0011 
2447.772476 0.0011 0.0011 0.0011 0.0011 0.0010 0.0010 0.0010 0.0009 0.0010 
2456.452520 0.0010 0.0009 0.0009 0.0008 0.0008 0.0009 0.0008 0.0008 0.0008 
2465.132564 0.0008 0.0008 0.0007 0.0007 0.0007 0.0007 0.0007 0.0007 0.0007 
2473.812608 0.0007 0.0007 0.0007 0.0007 0.0007 0.0007 0.0007 0.0007 0.0007 
2482.492653 0.0007 0.0007 0.0007 0.0007 0.0007 0.0007 0.0007 0.0008 0.0008 
2491.172697 0.0008 0.0008 0.0008 0.0008 0.0008 0.0008 0.0008 0.0008 0.0008 
2499.852741 0.0008 0.0009 0.0009 0.0009 0.0010 0.0010 0.0010 0.0010 0.0010 
2508.532785 0.0010 0.0010 0.0010 0.0010 0.0011 0.0011 0.0011 0.0012 0.0012 
2517.212830 0.0012 0.0013 0.0013 0.0014 0.0013 0.0013 0.0013 0.0013 0.0014 
2525.892874 0.0014 0.0013 0.0013 0.0013 0.0013 0.0013 0.0014 0.0014 0.0014 
2534.572918 0.0014 0.0015 0.0015 0.0015 0.0015 0.0015 0.0016 0.0016 0.0016 
2543.252962 0.0015 0.0016 0.0016 0.0017 0.0017 0.0017 0.0018 0.0018 0.0018 
2551.933007 0.0019 0.0019 0.0019 0.0020 0.0020 0.0021 0.0021 0.0021 0.0022 
2560.613051 0.0022 0.0022 0.0022 0.0022 0.0023 0.0024 0.0025 0.0026 0.0027 
2569.293095 0.0027 0.0028 0.0030 0.0032 0.0033 0.0034 0.0035 0.0036 0.0038 
2577.973139 0.0040 0.0042 0.0043 0.0045 0.0046 0.0047 0.0047 0.0048 0.0049 
2586.653184 0.0049 0.0050 0.0050 0.0050 0.0050 0.0050 0.0050 0.0049 0.0049 
2595.333228 0.0049 0.0048 0.0048 0.0047 0.0047 0.0046 0.0047 0.0047 0.0046 
2604.013272 0.0045 0.0044 0.0044 0.0045 0.0045 0.0045 0.0045 0.0046 0.0047 
2612.693316 0.0047 0.0047 0.0048 0.0048 0.0048 0.0048 0.0049 0.0050 0.0050 
2621.373360 0.0050 0.0050 0.0050 0.0051 0.0050 0.0050 0.0051 0.0051 0.0051 
2630.053405 0.0051 0.0051 0.0051 0.0051 0.0051 0.0052 0.0052 0.0051 0.0051 
2638.733449 0.0052 0.0052 0.0052 0.0052 0.0053 0.0053 0.0053 0.0054 0.0054 
2647.413493 0.0055 0.0056 0.0057 0.0058 0.0059 0.0060 0.0061 0.0063 0.0063 
2656.093537 0.0064 0.0065 0.0065 0.0065 0.0067 0.0067 0.0067 0.0068 0.0068 
2664.773582 0.0069 0.0069 0.0070 0.0070 0.0070 0.0071 0.0072 0.0074 0.0076 
2673.453626 0.0077 0.0079 0.0081 0.0083 0.0086 0.0089 0.0092 0.0095 0.0098 
2682.133670 0.0100 0.0102 0.0104 0.0106 0.0109 0.0112 0.0115 0.0118 0.0120 
2690.813714 0.0123 0.0126 0.0130 0.0132 0.0135 0.0138 0.0141 0.0143 0.0146 
2699.493759 0.0148 0.0151 0.0152 0.0153 0.0153 0.0152 0.0152 0.0154 0.0155 
2708.173803 0.0156 0.0158 0.0160 0.0162 0.0165 0.0167 0.0168 0.0170 0.0171 
2716.853847 0.0172 0.0173 0.0173 0.0174 0.0176 0.0179 0.0182 0.0185 0.0189 
2725.533891 0.0193 0.0198 0.0202 0.0207 0.0212 0.0217 0.0221 0.0223 0.0224 
2734.213936 0.0224 0.0223 0.0222 0.0220 0.0218 0.0216 0.0212 0.0209 0.0205 
2742.893980 0.0200 0.0196 0.0193 0.0189 0.0187 0.0186 0.0185 0.0183 0.0182 
2751.574024 0.0181 0.0180 0.0179 0.0178 0.0178 0.0178 0.0177 0.0178 0.0178 
2760.254068 0.0180 0.0182 0.0184 0.0187 0.0190 0.0193 0.0197 0.0202 0.0207 
2768.934113 0.0213 0.0218 0.0223 0.0229 0.0235 0.0243 0.0250 0.0259 0.0269 
2777.614157 0.0279 0.0291 0.0304 0.0319 0.0335 0.0354 0.0376 0.0399 0.0423 
2786.294201 0.0449 0.0476 0.0504 0.0533 0.0562 0.0590 0.0615 0.0639 0.0659 
2794.974245 0.0673 0.0681 0.0681 0.0673 0.0658 0.0637 0.0611 0.0582 0.0553 
2803.654290 0.0525 0.0499 0.0475 0.0454 0.0439 0.0426 0.0417 0.0411 0.0408 
2812.334334 0.0406 0.0407 0.0409 0.0414 0.0420 0.0429 0.0439 0.0450 0.0464 
2821.014378 0.0482 0.0501 0.0522 0.0546 0.0573 0.0602 0.0633 0.0667 0.0703 
2829.694422 0.0740 0.0779 0.0820 0.0867 0.0917 0.0974 0.1039 0.1110 0.1189 
2838.374466 0.1279 0.1379 0.1490 0.1607 0.1730 0.1854 0.1977 0.2096 0.2213 
2847.054511 0.2325 0.2441 0.2562 0.2687 0.2814 0.2943 0.3069 0.3192 0.3304 
2855.734555 0.3407 0.3500 0.3588 0.3669 0.3750 0.3830 0.3910 0.3978 0.4034 
2864.414599 0.4066 0.4077 0.4059 0.4025 0.3976 0.3934 0.3910 0.3918 0.3943 
2873.094643 0.3962 0.3925 0.3799 0.3575 0.3295 0.2998 0.2722 0.2477 0.2267 
2881.774688 0.2088 0.1939 0.1815 0.1715 0.1634 0.1573 0.1526 0.1493 0.1471 
2890.454732 0.1460 0.1456 0.1462 0.1475 0.1495 0.1518 0.1546 0.1577 0.1612 
2899.134776 0.1650 0.1693 0.1734 0.1775 0.1813 0.1857 0.1902 0.1953 0.2009 
2907.814820 0.2073 0.2138 0.2206 0.2269 0.2325 0.2369 0.2404 0.2428 0.2448 
2916.494865 0.2464 0.2488 0.2521 0.2573 0.2640 0.2729 0.2839 0.2972 0.3123 
2925.174909 0.3291 0.3469 0.3655 0.3839 0.4022 0.4199 0.4369 0.4513 0.4625 
2933.854953 0.4681 0.4675 0.4594 0.4456 0.4278 0.4090 0.3901 0.3726 0.3563 
2942.534997 0.3420 0.3298 0.3207 0.3139 0.3100 0.3090 0.3114 0.3168 0.3261 
2951.215042 0.3391 0.3566 0.3790 0.4062 0.4363 0.4683 0.4989 0.5261 0.5464 
2959.895086 0.5592 0.5628 0.5581 0.5451 0.5258 0.4999 0.4694 0.4352 0.3998 
2968.575130 0.3641 0.3299 0.2974 0.2674 0.2400 0.2153 0.1933 0.1742 0.1573 
2977.255174 0.1424 0.1294 0.1180 0.1081 0.0995 0.0918 0.0850 0.0788 0.0733 
2985.935219 0.0682 0.0638 0.0598 0.0561 0.0528 0.0498 0.0470 0.0445 0.0423 
2994.615263 0.0404 0.0385 0.0367 0.0352 0.0337 0.0323 0.0311 0.0300 0.0289 
3003.295307 0.0279 0.0270 0.0260 0.0251 0.0244 0.0236 0.0229 0.0222 0.0216 
3011.975351 0.0210 0.0204 0.0198 0.0193 0.0188 0.0183 0.0179 0.0174 0.0170 
3020.655396 0.0166 0.0162 0.0157 0.0153 0.0149 0.0146 0.0143 0.0139 0.0137 
3029.335440 0.0134 0.0131 0.0128 0.0126 0.0123 0.0119 0.0116 0.0114 0.0111 
3038.015484 0.0108 0.0107 0.0104 0.0102 0.0099 0.0097 0.0096 0.0094 0.0091 
3046.695528 0.0089 0.0088 0.0086 0.0084 0.0083 0.0081 0.0079 0.0077 0.0076 
3055.375572 0.0075 0.0073 0.0071 0.0070 0.0069 0.0067 0.0066 0.0065 0.0065 
3064.055617 0.0063 0.0062 0.0061 0.0060 0.0059 0.0058 0.0056 0.0056 0.0055 
3072.735661 0.0054 0.0053 0.0052 0.0052 0.0052 0.0051 0.0051 0.0051 0.0049 
3081.415705 0.0048 0.0049 0.0048 0.0047 0.0047 0.0045 0.0045 0.0046 0.0045 
3090.095749 0.0045 0.0044 0.0043 0.0044 0.0043 0.0042 0.0042 0.0042 0.0041 
3098.775794 0.0041 0.0041 0.0041 0.0040 0.0041 0.0041 0.0041 0.0040 0.0039 
3107.455838 0.0039 0.0039 0.0038 0.0038 0.0038 0.0038 0.0037 0.0037 0.0037 
3116.135882 0.0037 0.0036 0.0037 0.0037 0.0037 0.0036 0.0036 0.0035 0.0035 
3124.815926 0.0035 0.0035 0.0034 0.0033 0.0033 0.0033 0.0033 0.0034 0.0033 
3133.495971 0.0033 0.0033 0.0033 0.0032 0.0033 0.0033 0.0032 0.0032 0.0032 
3142.176015 0.0032 0.0032 0.0031 0.0030 0.0030 0.0030 0.0030 0.0029 0.0029 
3150.856059 0.0028 0.0028 0.0028 0.0028 0.0029 0.0028 0.0027 0.0028 0.0029 
3159.536103 0.0028 0.0027 0.0027 0.0027 0.0027 0.0026 0.0026 0.0026 0.0027 
3168.216148 0.0027 0.0027 0.0026 0.0026 0.0026 0.0027 0.0027 0.0027 0.0026 
3176.896192 0.0026 0.0027 0.0027 0.0027 0.0027 0.0026 0.0026 0.0026 0.0026 
3185.576236 0.0027 0.0027 0.0026 0.0026 0.0026 0.0025 0.0025 0.0025 0.0026 
3194.256280 0.0026 0.0025 0.0025 0.0024 0.0025 0.0025 0.0025 0.0024 0.0024 
3202.936325 0.0024 0.0023 0.0023 0.0023 0.0022 0.0021 0.0021 0.0021 0.0021 
3211.616369 0.0021 0.0020 0.0020 0.0019 0.0019 0.0018 0.0018 0.0018 0.0017 
3220.296413 0.0018 0.0017 0.0017 0.0017 0.0016 0.0016 0.0016 0.0015 0.0014 
3228.976457 0.0014 0.0014 0.0014 0.0013 0.0013 0.0013 0.0013 0.0012 0.0011 
3237.656502 0.0012 0.0013 0.0012 0.0011 0.0010 0.0010 0.0010 0.0010 0.0010 
3246.336546 0.0010 0.0010 0.0009 0.0009 0.0009 0.0008 0.0008 0.0007 0.0007 
3255.016590 0.0007 0.0007 0.0007 0.0007 0.0007 0.0006 0.0006 0.0006 0.0005 
3263.696634 0.0004 0.0004 0.0005 0.0004 0.0004 0.0003 0.0002 0.0001 0.0002 
3272.376678 0.0001 0.0001 0.0002 0.0002 0.0002 0.0003 0.0002 0.0001 0.0010 
3281.056723 0.0000 0.0000 0.0010 0.0010 0.0010 0.0010 0.0010 0.0010 0.0000 
3289.736767 0.0001 0.0000 0.0010 0.0010 0.0010 0.0010 0.0010 0.0010 0.0010 
3298.416811 0.0010 0.0010 0.0010 0.0010 0.0010 0.0010 0.0010 0.0010 0.0010 
3307.096855 0.0010 0.0010 0.0010 0.0000 0.0000 0.0000 0.0010 0.0010 0.0010 
3315.776900 0.0010 0.0000 0.0000 0.0010 0.0010 0.0010 0.0010 0.0010 0.0010 
3324.456944 0.0001 0.0001 0.0001 0.0001 0.0001 0.0001 0.0002 0.0002 0.0002 
3333.136988 0.0002 0.0001 0.0001 0.0001 0.0001 0.0002 0.0002 0.0001 0.0001 
3341.817032 0.0001 0.0002 0.0002 0.0002 0.0002 0.0001 0.0001 0.0002 0.0001 
3350.497077 0.0001 0.0002 0.0003 0.0002 0.0002 0.0002 0.0002 0.0002 0.0002 
3359.177121 0.0002 0.0002 0.0002 0.0002 0.0002 0.0003 0.0003 0.0003 0.0002 
3367.857165 0.0002 0.0002 0.0002 0.0001 0.0002 0.0002 0.0002 0.0001 0.0002 
3376.537209 0.0001 0.0001 0.0001 0.0010 0.0010 0.0010 0.0000 0.0010 0.0000 
3385.217254 0.0001 0.0000 0.0000 0.0010 0.0010 0.0010 0.0010 0.0010 0.0010 
3393.897298 0.0010 0.0010 0.0010 0.0010 0.0010 0.0010 0.0010 0.0010 0.0010 
3402.577342 0.0010 0.0010 0.0010 0.0010 0.0010 0.0010 0.0010 0.0010 0.0010 
3411.257386 0.0010 0.0010 0.0010 0.0010 0.0010 0.0010 0.0010 0.0010 0.0010 
3419.937431 0.0000 0.0001 0.0001 0.0001 0.0001 0.0000 0.0001 0.0001 0.0001 
3428.617475 0.0002 0.0002 0.0002 0.0002 0.0001 0.0002 0.0003 0.0003 0.0003 
3437.297519 0.0004 0.0003 0.0003 0.0003 0.0004 0.0005 0.0005 0.0004 0.0005 
3445.977563 0.0004 0.0005 0.0006 0.0007 0.0007 0.0006 0.0005 0.0005 0.0006 
3454.657608 0.0006 0.0007 0.0008 0.0008 0.0009 0.0008 0.0007 0.0008 0.0009 
3463.337652 0.0008 0.0009 0.0009 0.0009 0.0010 0.0010 0.0010 0.0009 0.0010 
3472.017696 0.0010 0.0010 0.0010 0.0011 0.0012 0.0011 0.0010 0.0011 0.0010 
3480.697740 0.0011 0.0011 0.0011 0.0009 0.0009 0.0009 0.0008 0.0008 0.0009 
3489.377784 0.0010 0.0010 0.0009 0.0009 0.0010 0.0009 0.0008 0.0009 0.0009 
3498.057829 0.0010 0.0009 0.0008 0.0009 0.0009 0.0008 0.0008 0.0008 0.0008 
3506.737873 0.0007 0.0008 0.0009 0.0009 0.0008 0.0007 0.0007 0.0007 0.0007 
3515.417917 0.0007 0.0006 0.0006 0.0006 0.0006 0.0006 0.0006 0.0006 0.0005 
3524.097961 0.0005 0.0006 0.0006 0.0006 0.0006 0.0007 0.0007 0.0006 0.0005 
3532.778006 0.0006 0.0007 0.0007 0.0006 0.0006 0.0005 0.0005 0.0006 0.0006 
3541.458050 0.0005 0.0004 0.0004 0.0005 0.0006 0.0007 0.0007 0.0005 0.0005 
3550.138094 0.0005 0.0005 0.0006 0.0007 0.0007 0.0007 0.0006 0.0006 0.0006 
3558.818138 0.0005 0.0005 0.0006 0.0006 0.0006 0.0006 0.0005 0.0005 0.0009 
3567.498183 0.0011 0.0010 0.0007 0.0005 0.0006 0.0007 0.0008 0.0007 0.0007 
3576.178227 0.0007 0.0008 0.0007 0.0007 0.0008 0.0008 0.0007 0.0006 0.0006 
3584.858271 0.0006 0.0006 0.0008 0.0008 0.0007 0.0006 0.0005 0.0005 0.0005 
3593.538315 0.0005 0.0003 0.0004 0.0005 0.0005 0.0005 0.0004 0.0003 0.0003 
3602.218360 0.0004 0.0004 0.0003 0.0004 0.0004 0.0006 0.0005 0.0006 0.0009 
3610.898404 0.0008 0.0008 0.0010 0.0010 0.0011 0.0011 0.0008 0.0008 0.0008 
3619.578448 0.0010 0.0009 0.0007 0.0005 0.0004 0.0004 0.0002 0.0001 0.0003 
3628.258492 0.0005 0.0010 0.0007 0.0004 0.0005 0.0006 0.0009 0.0010 0.0010 
3636.938537 0.0010 0.0012 0.0012 0.0012 0.0013 0.0013 0.0014 0.0013 0.0013 
3645.618581 0.0013 0.0015 0.0019 0.0018 0.0019 0.0018 0.0018 0.0016 0.0014 
3654.298625 0.0015 0.0014 0.0015 0.0016 0.0015 0.0015 0.0015 0.0016 0.0017 
3662.978669 0.0017 0.0018 0.0018 0.0018 0.0018 0.0018 0.0018 0.0022 0.0023 
3671.658714 0.0021 0.0020 0.0022 0.0025 0.0024 0.0024 0.0024 0.0023 0.0024 
3680.338758 0.0025 0.0025 0.0027 0.0028 0.0028 0.0028 0.0028 0.0028 0.0029 
3689.018802 0.0030 0.0024 0.0022 0.0020 0.0018 0.0018 0.0017 0.0018 0.0018 
3697.698846 0.0018 0.0016 0.0015 0.0014 0.0015 0.0014 0.0012 0.0012 0.0013 
3706.378890 0.0012 0.0012 0.0011 0.0010 0.0011 0.0012 0.0017 0.0018 0.0017 
3715.058935 0.0017 0.0016 0.0014 0.0012 0.0012 0.0011 0.0010 0.0010 0.0008 
3723.738979 0.0006 0.0005 0.0005 0.0006 0.0005 0.0004 0.0004 0.0005 0.0005 
3732.419023 0.0008 0.0008 0.0011 0.0019 0.0014 0.0009 0.0009 0.0012 0.0012 
3741.099067 0.0011 0.0012 0.0014 0.0018 0.0029 0.0021 0.0017 0.0015 0.0014 
3749.779112 0.0016 0.0014 0.0014 0.0017 0.0014 0.0013 0.0013 0.0014 0.0014 
3758.459156 0.0013 0.0016 0.0016 0.0014 0.0015 0.0014 0.0013 0.0015 0.0019 
3767.139200 0.0017 0.0016 0.0016 0.0017 0.0015 0.0015 0.0015 0.0016 0.0016 
3775.819244 0.0015 0.0014 0.0014 0.0013 0.0015 0.0015 0.0014 0.0014 0.0014 
3784.499289 0.0015 0.0016 0.0015 0.0015 0.0015 0.0016 0.0015 0.0015 0.0015 
3793.179333 0.0015 0.0014 0.0012 0.0012 0.0016 0.0016 0.0016 0.0017 0.0017 
3801.859377 0.0019 0.0020 0.0020 0.0020 0.0018 0.0017 0.0019 0.0017 0.0016 
3810.539421 0.0017 0.0018 0.0020 0.0020 0.0020 0.0020 0.0023 0.0021 0.0019 
3819.219466 0.0019 0.0018 0.0019 0.0021 0.0022 0.0022 0.0022 0.0023 0.0022 
3827.899510 0.0022 0.0022 0.0022 0.0022 0.0023 0.0023 0.0022 0.0022 0.0022 
3836.579554 0.0020 0.0020 0.0023 0.0024 0.0026 0.0025 0.0021 0.0022 0.0024 
3845.259598 0.0023 0.0022 0.0021 0.0019 0.0018 0.0018 0.0019 0.0025 0.0028 
3853.939643 0.0027 0.0025 0.0019 0.0019 0.0019 0.0017 0.0018 0.0020 0.0021 
3862.619687 0.0020 0.0018 0.0019 0.0019 0.0019 0.0018 0.0017 0.0018 0.0020 
3871.299731 0.0018 0.0018 0.0018 0.0020 0.0019 0.0018 0.0017 0.0016 0.0017 
3879.979775 0.0021 0.0021 0.0017 0.0016 0.0017 0.0017 0.0019 0.0018 0.0016 
3888.659820 0.0016 0.0016 0.0018 0.0021 0.0019 0.0019 0.0020 0.0018 0.0017 
3897.339864 0.0017 0.0018 0.0021 0.0018 0.0017 0.0023 0.0023 0.0023 0.0022 
3906.019908 0.0020 0.0018 0.0016 0.0018 0.0020 0.0019 0.0018 0.0018 0.0018 
3914.699952 0.0018 0.0019 0.0020 0.0020 0.0019 0.0019 0.0020 0.0019 0.0018 
3923.379996 0.0019 0.0019 0.0020 0.0021 0.0021 0.0021 0.0020 0.0020 0.0021 
3932.060041 0.0022 0.0021 0.0020 0.0021 0.0020 0.0020 0.0021 0.0022 0.0022 
3940.740085 0.0022 0.0022 0.0025 0.0026 0.0024 0.0023 0.0023 0.0025 0.0027 
3949.420129 0.0028 0.0027 0.0026 0.0026 0.0027 0.0026 0.0025 0.0025 0.0027 
3958.100173 0.0027 0.0027 0.0027 0.0027 0.0027 0.0028 0.0029 0.0030 0.0028 
3966.780218 0.0029 0.0030 0.0030 0.0030 0.0030 0.0031 0.0032 0.0032 0.0033 
3975.460262 0.0033 0.0033 0.0033 0.0031 0.0031 0.0032 0.0033 0.0036 0.0036 
3984.140306 0.0034 0.0033 0.0034 0.0034 0.0035 0.0035 0.0034 0.0035 0.0034 
3992.820350 0.0035 0.0035 0.0035 0.0036 0.0035 0.0035 0.0035 0.0034 0.0033 
##END=
