##JCAMP-DX=5.01
##FILENAME=KAM-01.jdx
##XUNITS=1/CM
##YUNITS=ABSORBANCE
##FIRSTX=399.282035
##LASTX=4000.535945
##MAXX=4000.535945
##MINX=399.282035
##FIRSTY=0.0632
##LASTY=0.0218
##MAXY=0.5513
##MINY=0.0005
##NPOINTS=3735
##XFACTOR=1
##YFACTOR=1
##XYDATA=(X++(Y..Y))
399.282035 0.0632 0.0597 0.0488 0.0447 0.0457 0.0497 0.0558 0.0529 0.0476 0.0489 
408.926529 0.0530 0.0523 0.0483 0.0472 0.0456 0.0434 0.0404 0.0396 0.0425 0.0490 
418.571022 0.0464 0.0347 0.0336 0.0375 0.0427 0.0431 0.0382 0.0363 0.0341 0.0326 
428.215516 0.0321 0.0333 0.0344 0.0325 0.0332 0.0353 0.0375 0.0396 0.0400 0.0371 
437.860009 0.0346 0.0364 0.0358 0.0318 0.0265 0.0296 0.0334 0.0317 0.0314 0.0322 
447.504503 0.0331 0.0322 0.0319 0.0315 0.0293 0.0303 0.0322 0.0301 0.0295 0.0296 
457.148997 0.0290 0.0305 0.0317 0.0314 0.0323 0.0319 0.0283 0.0276 0.0273 0.0278 
466.793490 0.0305 0.0342 0.0317 0.0278 0.0275 0.0271 0.0268 0.0312 0.0333 0.0334 
476.437984 0.0355 0.0359 0.0345 0.0333 0.0341 0.0354 0.0353 0.0344 0.0341 0.0377 
486.082477 0.0404 0.0388 0.0384 0.0390 0.0382 0.0368 0.0371 0.0356 0.0340 0.0334 
495.726971 0.0319 0.0312 0.0312 0.0307 0.0305 0.0304 0.0294 0.0281 0.0279 0.0277 
505.371465 0.0259 0.0246 0.0244 0.0258 0.0266 0.0272 0.0269 0.0259 0.0258 0.0257 
515.015958 0.0247 0.0244 0.0242 0.0243 0.0255 0.0257 0.0237 0.0231 0.0232 0.0229 
524.660452 0.0222 0.0206 0.0219 0.0234 0.0242 0.0231 0.0220 0.0222 0.0216 0.0216 
534.304945 0.0223 0.0233 0.0233 0.0237 0.0239 0.0233 0.0230 0.0227 0.0230 0.0235 
543.949439 0.0237 0.0233 0.0224 0.0233 0.0251 0.0261 0.0273 0.0295 0.0324 0.0369 
553.593933 0.0417 0.0442 0.0425 0.0388 0.0349 0.0317 0.0293 0.0277 0.0263 0.0252 
563.238426 0.0244 0.0242 0.0237 0.0231 0.0223 0.0226 0.0228 0.0227 0.0228 0.0226 
572.882920 0.0222 0.0221 0.0224 0.0234 0.0233 0.0223 0.0221 0.0222 0.0223 0.0220 
582.527413 0.0219 0.0219 0.0221 0.0219 0.0217 0.0215 0.0212 0.0213 0.0214 0.0214 
592.171907 0.0214 0.0214 0.0217 0.0220 0.0222 0.0223 0.0221 0.0224 0.0234 0.0229 
601.816401 0.0221 0.0223 0.0225 0.0225 0.0226 0.0233 0.0237 0.0244 0.0254 0.0271 
611.460894 0.0297 0.0332 0.0380 0.0429 0.0462 0.0487 0.0512 0.0486 0.0425 0.0387 
621.105388 0.0357 0.0326 0.0301 0.0289 0.0279 0.0267 0.0249 0.0236 0.0227 0.0219 
630.749881 0.0214 0.0213 0.0213 0.0215 0.0219 0.0224 0.0221 0.0217 0.0217 0.0226 
640.394375 0.0228 0.0225 0.0232 0.0236 0.0230 0.0237 0.0246 0.0248 0.0262 0.0272 
650.038869 0.0010 0.0010 0.0010 0.0010 0.0010 0.0010 0.0010 0.0010 0.0010 0.0010 
659.683362 0.0010 0.0010 0.0010 0.0010 0.0010 0.0010 0.0010 0.0010 0.0010 0.0010 
669.327856 0.0010 0.0010 0.0010 0.0010 0.0010 0.0010 0.0010 0.0010 0.0010 0.0010 
678.972349 0.0010 0.0010 0.0010 0.0010 0.0010 0.0010 0.0010 0.0010 0.0010 0.0010 
688.616843 0.0010 0.0010 0.0010 0.0010 0.0010 0.0010 0.0010 0.0010 0.0010 0.0010 
698.261337 0.0010 0.0010 0.0010 0.0010 0.0010 0.0010 0.0010 0.0010 0.0010 0.0010 
707.905830 0.0010 0.0010 0.0010 0.0010 0.0010 0.0010 0.0010 0.0010 0.0010 0.0010 
717.550324 0.0010 0.0010 0.0010 0.0010 0.0010 0.0010 0.0010 0.0010 0.0010 0.0010 
727.194817 0.0010 0.0010 0.0010 0.0010 0.0010 0.0010 0.0010 0.0010 0.0010 0.0010 
736.839311 0.0010 0.0010 0.0010 0.0010 0.0010 0.0010 0.0010 0.0010 0.0010 0.0010 
746.483805 0.0010 0.0010 0.0010 0.0010 0.0010 0.0010 0.0010 0.0010 0.0010 0.0010 
756.128298 0.0010 0.0010 0.0010 0.0010 0.0010 0.0010 0.0010 0.0010 0.0010 0.0010 
765.772792 0.0010 0.0010 0.0010 0.0010 0.0010 0.0010 0.0010 0.0010 0.0010 0.0010 
775.417285 0.0010 0.0010 0.0010 0.0010 0.0010 0.0010 0.0010 0.0010 0.0010 0.0010 
785.061779 0.0010 0.0010 0.0010 0.0010 0.0010 0.0010 0.0010 0.0010 0.0010 0.0010 
794.706273 0.0010 0.0010 0.0010 0.0010 0.0010 0.0010 0.0010 0.0010 0.0010 0.0010 
804.350766 0.0010 0.0010 0.0010 0.0010 0.0010 0.0010 0.0010 0.0010 0.0010 0.0010 
813.995260 0.0010 0.0010 0.0010 0.0010 0.0010 0.0010 0.0010 0.0010 0.0010 0.0010 
823.639753 0.0010 0.0010 0.0010 0.0010 0.0010 0.0010 0.0010 0.0010 0.0010 0.0010 
833.284247 0.0010 0.0010 0.0010 0.0010 0.0010 0.0010 0.0010 0.0010 0.0010 0.0010 
842.928741 0.0010 0.0010 0.0010 0.0010 0.0010 0.0010 0.0010 0.0010 0.0010 0.0010 
852.573234 0.0010 0.0010 0.0010 0.0010 0.0010 0.0010 0.0010 0.0010 0.0260 0.0264 
862.217728 0.0278 0.0292 0.0288 0.0275 0.0260 0.0240 0.0218 0.0199 0.0189 0.0192 
871.862221 0.0204 0.0219 0.0229 0.0228 0.0220 0.0209 0.0204 0.0208 0.0223 0.0245 
881.506715 0.0269 0.0291 0.0312 0.0337 0.0367 0.0405 0.0454 0.0507 0.0535 0.0515 
891.151209 0.0460 0.0402 0.0353 0.0316 0.0287 0.0268 0.0257 0.0253 0.0254 0.0258 
900.795702 0.0260 0.0258 0.0254 0.0252 0.0255 0.0264 0.0281 0.0300 0.0306 0.0293 
910.440196 0.0274 0.0258 0.0246 0.0235 0.0225 0.0217 0.0212 0.0210 0.0211 0.0217 
920.084689 0.0227 0.0239 0.0249 0.0256 0.0262 0.0264 0.0259 0.0245 0.0232 0.0226 
929.729183 0.0224 0.0223 0.0224 0.0228 0.0232 0.0233 0.0233 0.0231 0.0227 0.0222 
939.373677 0.0220 0.0220 0.0226 0.0232 0.0241 0.0250 0.0260 0.0269 0.0277 0.0284 
949.018170 0.0292 0.0303 0.0317 0.0336 0.0363 0.0399 0.0444 0.0497 0.0560 0.0630 
958.662664 0.0705 0.0785 0.0863 0.0923 0.0944 0.0923 0.0880 0.0839 0.0823 0.0837 
968.307157 0.0880 0.0948 0.1024 0.1067 0.1026 0.0893 0.0726 0.0581 0.0478 0.0408 
977.951651 0.0360 0.0328 0.0308 0.0296 0.0292 0.0289 0.0282 0.0273 0.0269 0.0265 
987.596145 0.0264 0.0264 0.0264 0.0265 0.0261 0.0254 0.0247 0.0243 0.0242 0.0242 
997.240638 0.0243 0.0244 0.0245 0.0246 0.0246 0.0247 0.0247 0.0248 0.0251 0.0256 
1006.885132 0.0262 0.0269 0.0278 0.0289 0.0304 0.0321 0.0341 0.0364 0.0391 
1015.565176 0.0423 0.0459 0.0493 0.0515 0.0525 0.0539 0.0570 0.0632 0.0728 
1024.245220 0.0823 0.0846 0.0776 0.0678 0.0606 0.0567 0.0553 0.0558 0.0571 
1032.925265 0.0576 0.0566 0.0548 0.0538 0.0538 0.0550 0.0571 0.0599 0.0633 
1041.605309 0.0672 0.0715 0.0758 0.0798 0.0835 0.0868 0.0901 0.0935 0.0973 
1050.285353 0.1011 0.1048 0.1085 0.1128 0.1176 0.1229 0.1284 0.1342 0.1402 
1058.965397 0.1464 0.1528 0.1599 0.1677 0.1763 0.1850 0.1931 0.1992 0.2021 
1067.645442 0.2003 0.1935 0.1820 0.1676 0.1520 0.1368 0.1231 0.1115 0.1018 
1076.325486 0.0940 0.0875 0.0822 0.0777 0.0740 0.0709 0.0685 0.0667 0.0655 
1085.005530 0.0645 0.0638 0.0632 0.0627 0.0621 0.0617 0.0615 0.0614 0.0617 
1093.685574 0.0624 0.0634 0.0649 0.0668 0.0692 0.0721 0.0754 0.0789 0.0824 
1102.365618 0.0859 0.0890 0.0913 0.0929 0.0940 0.0951 0.0962 0.0977 0.0994 
1111.045663 0.1015 0.1037 0.1061 0.1084 0.1109 0.1137 0.1167 0.1188 0.1185 
1119.725707 0.1152 0.1098 0.1041 0.0995 0.0961 0.0938 0.0922 0.0910 0.0900 
1128.405751 0.0891 0.0880 0.0870 0.0859 0.0846 0.0831 0.0814 0.0792 0.0769 
1137.085795 0.0746 0.0722 0.0701 0.0683 0.0666 0.0648 0.0629 0.0609 0.0587 
1145.765840 0.0565 0.0544 0.0524 0.0508 0.0495 0.0487 0.0482 0.0480 0.0480 
1154.445884 0.0481 0.0482 0.0480 0.0477 0.0470 0.0461 0.0449 0.0436 0.0423 
1163.125928 0.0409 0.0394 0.0380 0.0371 0.0367 0.0363 0.0358 0.0353 0.0347 
1171.805972 0.0341 0.0334 0.0325 0.0316 0.0308 0.0301 0.0295 0.0291 0.0288 
1180.486017 0.0286 0.0286 0.0288 0.0291 0.0294 0.0294 0.0293 0.0290 0.0286 
1189.166061 0.0282 0.0278 0.0275 0.0273 0.0272 0.0273 0.0276 0.0280 0.0285 
1197.846105 0.0290 0.0296 0.0301 0.0306 0.0311 0.0314 0.0317 0.0321 0.0325 
1206.526149 0.0328 0.0332 0.0338 0.0346 0.0355 0.0369 0.0388 0.0410 0.0436 
1215.206194 0.0469 0.0508 0.0554 0.0605 0.0659 0.0705 0.0731 0.0727 0.0700 
1223.886238 0.0665 0.0635 0.0614 0.0599 0.0588 0.0578 0.0568 0.0557 0.0544 
1232.566282 0.0529 0.0512 0.0496 0.0478 0.0462 0.0446 0.0435 0.0424 0.0417 
1241.246326 0.0413 0.0412 0.0412 0.0413 0.0417 0.0421 0.0427 0.0436 0.0444 
1249.926371 0.0450 0.0457 0.0467 0.0477 0.0480 0.0468 0.0446 0.0422 0.0403 
1258.606415 0.0388 0.0377 0.0373 0.0379 0.0388 0.0400 0.0411 0.0414 0.0410 
1267.286459 0.0402 0.0396 0.0392 0.0388 0.0380 0.0375 0.0375 0.0371 0.0367 
1275.966503 0.0364 0.0361 0.0358 0.0356 0.0353 0.0348 0.0342 0.0337 0.0330 
1284.646548 0.0325 0.0321 0.0318 0.0319 0.0318 0.0315 0.0316 0.0314 0.0313 
1293.326592 0.0312 0.0311 0.0309 0.0310 0.0308 0.0304 0.0303 0.0304 0.0307 
1302.006636 0.0313 0.0322 0.0335 0.0353 0.0377 0.0407 0.0443 0.0486 0.0527 
1310.686680 0.0559 0.0571 0.0554 0.0517 0.0484 0.0454 0.0428 0.0407 0.0382 
1319.366724 0.0367 0.0364 0.0363 0.0358 0.0358 0.0357 0.0356 0.0356 0.0355 
1328.046769 0.0353 0.0350 0.0347 0.0345 0.0346 0.0352 0.0362 0.0379 0.0402 
1336.726813 0.0437 0.0460 0.0457 0.0438 0.0416 0.0415 0.0427 0.0448 0.0482 
1345.406857 0.0525 0.0562 0.0562 0.0514 0.0448 0.0407 0.0390 0.0384 0.0382 
1354.086901 0.0385 0.0395 0.0410 0.0425 0.0444 0.0460 0.0475 0.0487 0.0493 
1362.766946 0.0486 0.0512 0.0534 0.0539 0.0535 0.0522 0.0501 0.0496 0.0490 
1371.446990 0.0477 0.0458 0.0423 0.0389 0.0388 0.0413 0.0424 0.0425 0.0420 
1380.127034 0.0417 0.0417 0.0418 0.0417 0.0416 0.0415 0.0408 0.0384 0.0380 
1388.807078 0.0401 0.0404 0.0402 0.0397 0.0385 0.0354 0.0311 0.0317 0.0346 
1397.487123 0.0358 0.0322 0.0296 0.0335 0.0351 0.0349 0.0340 0.0314 0.0296 
1406.167167 0.0318 0.0326 0.0327 0.0326 0.0328 0.0330 0.0333 0.0340 0.0350 
1414.847211 0.0357 0.0365 0.0369 0.0364 0.0314 0.0318 0.0409 0.0439 0.0428 
1423.527255 0.0387 0.0399 0.0435 0.0450 0.0466 0.0475 0.0452 0.0444 0.0484 
1432.207300 0.0487 0.0475 0.0455 0.0426 0.0361 0.0330 0.0390 0.0429 0.0451 
1440.887344 0.0479 0.0511 0.0562 0.0630 0.0733 0.0862 0.1013 0.1183 0.1439 
1449.567388 0.1551 0.1584 0.1593 0.1564 0.1360 0.1052 0.0746 0.0511 0.0309 
1458.247432 0.0274 0.0344 0.0424 0.0458 0.0464 0.0459 0.0408 0.0372 0.0450 
1466.927477 0.0454 0.0404 0.0356 0.0317 0.0257 0.0133 0.0069 0.0141 0.0215 
1475.607521 0.0199 0.0192 0.0236 0.0247 0.0242 0.0222 0.0202 0.0214 0.0216 
1484.287565 0.0209 0.0200 0.0165 0.0092 0.0105 0.0103 0.0031 0.0075 0.0155 
1492.967609 0.0175 0.0172 0.0139 0.0053 0.0050 0.0075 0.0038 0.0095 0.0010 
1501.647654 0.0010 0.0010 0.0010 0.0010 0.0010 0.0010 0.0010 0.0010 0.0010 
1510.327698 0.0010 0.0010 0.0010 0.0010 0.0010 0.0010 0.0010 0.0010 0.0010 
1519.007742 0.0010 0.0010 0.0010 0.0010 0.0010 0.0010 0.0010 0.0010 0.0010 
1527.687786 0.0010 0.0010 0.0010 0.0010 0.0010 0.0010 0.0010 0.0010 0.0010 
1536.367830 0.0010 0.0010 0.0010 0.0010 0.0010 0.0010 0.0010 0.0010 0.0010 
1545.047875 0.0010 0.0010 0.0010 0.0010 0.0010 0.0010 0.0010 0.0010 0.0010 
1553.727919 0.0010 0.0010 0.0010 0.0010 0.0010 0.0010 0.0010 0.0010 0.0010 
1562.407963 0.0010 0.0010 0.0010 0.0010 0.0010 0.0010 0.0010 0.0010 0.0010 
1571.088007 0.0010 0.0010 0.0010 0.0010 0.0010 0.0010 0.0010 0.0010 0.0010 
1579.768052 0.0010 0.0010 0.0010 0.0010 0.0010 0.0010 0.0010 0.0010 0.0010 
1588.448096 0.0010 0.0010 0.0010 0.0010 0.0010 0.0010 0.0010 0.0010 0.0010 
1597.128140 0.0010 0.0010 0.0010 0.0010 0.0010 0.0010 0.0010 0.0010 0.0010 
1605.808184 0.0010 0.0010 0.0010 0.0010 0.0010 0.0010 0.0010 0.0010 0.0010 
1614.488229 0.0010 0.0010 0.0010 0.0010 0.0010 0.0010 0.0010 0.0010 0.0010 
1623.168273 0.0010 0.0010 0.0010 0.0010 0.0010 0.0010 0.0010 0.0010 0.0010 
1631.848317 0.0010 0.0010 0.0010 0.0010 0.0010 0.0010 0.0010 0.0010 0.0010 
1640.528361 0.0010 0.0010 0.0010 0.0010 0.0010 0.0010 0.0010 0.0010 0.0010 
1649.208406 0.0010 0.0125 0.0065 0.0010 0.0010 0.0010 0.0008 0.0118 0.0151 
1657.888450 0.0163 0.0165 0.0164 0.0150 0.0096 0.0021 0.0092 0.0159 0.0178 
1666.568494 0.0178 0.0148 0.0048 0.0010 0.0058 0.0074 0.0134 0.0170 0.0121 
1675.248538 0.0035 0.0130 0.0191 0.0205 0.0186 0.0156 0.0168 0.0146 0.0021 
1683.928583 0.0010 0.0010 0.0067 0.0154 0.0170 0.0166 0.0154 0.0173 0.0214 
1692.608627 0.0226 0.0223 0.0172 0.0052 0.0087 0.0199 0.0243 0.0173 0.0006 
1701.288671 0.0362 0.0517 0.0591 0.0624 0.0698 0.0756 0.0909 0.1077 0.1172 
1709.968715 0.1253 0.1378 0.1518 0.1634 0.1723 0.1827 0.1989 0.2013 0.1881 
1718.648760 0.1835 0.1850 0.1779 0.1653 0.1516 0.1359 0.1212 0.1066 0.0916 
1727.328804 0.0782 0.0677 0.0566 0.0466 0.0436 0.0385 0.0259 0.0092 0.0180 
1736.008848 0.0275 0.0292 0.0275 0.0211 0.0127 0.0196 0.0239 0.0211 0.0204 
1744.688892 0.0229 0.0222 0.0192 0.0158 0.0132 0.0167 0.0175 0.0154 0.0198 
1753.368936 0.0215 0.0217 0.0205 0.0171 0.0165 0.0200 0.0209 0.0200 0.0150 
1762.048981 0.0121 0.0179 0.0207 0.0211 0.0210 0.0196 0.0168 0.0164 0.0155 
1770.729025 0.0076 0.0010 0.0010 0.0073 0.0126 0.0128 0.0148 0.0165 0.0164 
1779.409069 0.0146 0.0107 0.0123 0.0153 0.0153 0.0145 0.0148 0.0154 0.0156 
1788.089113 0.0156 0.0155 0.0138 0.0100 0.0042 0.0031 0.0114 0.0139 0.0136 
1796.769158 0.0149 0.0157 0.0124 0.0085 0.0126 0.0158 0.0163 0.0171 0.0172 
1805.449202 0.0172 0.0173 0.0169 0.0168 0.0155 0.0115 0.0118 0.0150 0.0157 
1814.129246 0.0155 0.0153 0.0152 0.0153 0.0154 0.0151 0.0150 0.0151 0.0151 
1822.809290 0.0150 0.0139 0.0103 0.0107 0.0139 0.0136 0.0085 0.0005 0.0047 
1831.489335 0.0118 0.0140 0.0144 0.0143 0.0141 0.0134 0.0128 0.0140 0.0148 
1840.169379 0.0148 0.0147 0.0143 0.0105 0.0031 0.0068 0.0122 0.0128 0.0124 
1848.849423 0.0137 0.0142 0.0142 0.0143 0.0144 0.0147 0.0150 0.0151 0.0151 
1857.529467 0.0151 0.0150 0.0150 0.0150 0.0151 0.0148 0.0146 0.0146 0.0136 
1866.209512 0.0116 0.0092 0.0066 0.0058 0.0105 0.0146 0.0154 0.0154 0.0153 
1874.889556 0.0152 0.0150 0.0148 0.0146 0.0147 0.0147 0.0146 0.0145 0.0146 
1883.569600 0.0144 0.0141 0.0146 0.0150 0.0149 0.0135 0.0106 0.0120 0.0143 
1892.249644 0.0147 0.0146 0.0136 0.0124 0.0134 0.0146 0.0148 0.0150 0.0152 
1900.929689 0.0154 0.0155 0.0155 0.0151 0.0151 0.0153 0.0150 0.0142 0.0138 
1909.609733 0.0130 0.0133 0.0145 0.0149 0.0150 0.0152 0.0153 0.0148 0.0122 
1918.289777 0.0112 0.0143 0.0155 0.0152 0.0137 0.0126 0.0140 0.0150 0.0150 
1926.969821 0.0149 0.0150 0.0151 0.0152 0.0153 0.0155 0.0157 0.0158 0.0159 
1935.649866 0.0159 0.0159 0.0158 0.0158 0.0157 0.0155 0.0142 0.0116 0.0130 
1944.329910 0.0147 0.0143 0.0142 0.0150 0.0157 0.0158 0.0157 0.0156 0.0156 
1953.009954 0.0154 0.0152 0.0149 0.0148 0.0150 0.0152 0.0141 0.0137 0.0144 
1961.689998 0.0148 0.0151 0.0152 0.0153 0.0150 0.0144 0.0142 0.0150 0.0153 
1970.370042 0.0152 0.0151 0.0149 0.0149 0.0149 0.0148 0.0148 0.0150 0.0152 
1979.050087 0.0153 0.0154 0.0155 0.0155 0.0155 0.0154 0.0153 0.0151 0.0150 
1987.730131 0.0146 0.0145 0.0146 0.0142 0.0132 0.0136 0.0147 0.0152 0.0154 
1996.410175 0.0155 0.0155 0.0155 0.0154 0.0154 0.0154 0.0153 0.0152 0.0151 
2005.090219 0.0151 0.0152 0.0152 0.0153 0.0154 0.0155 0.0158 0.0159 0.0160 
2013.770264 0.0161 0.0161 0.0159 0.0156 0.0159 0.0160 0.0160 0.0159 0.0158 
2022.450308 0.0158 0.0159 0.0160 0.0160 0.0161 0.0163 0.0165 0.0162 0.0162 
2031.130352 0.0164 0.0163 0.0162 0.0161 0.0159 0.0158 0.0157 0.0156 0.0156 
2039.810396 0.0156 0.0158 0.0159 0.0159 0.0159 0.0161 0.0162 0.0161 0.0160 
2048.490441 0.0158 0.0157 0.0156 0.0155 0.0155 0.0155 0.0155 0.0157 0.0159 
2057.170485 0.0160 0.0162 0.0164 0.0164 0.0165 0.0165 0.0164 0.0163 0.0162 
2065.850529 0.0161 0.0158 0.0157 0.0157 0.0157 0.0158 0.0159 0.0161 0.0162 
2074.530573 0.0163 0.0165 0.0166 0.0167 0.0167 0.0165 0.0163 0.0163 0.0163 
2083.210618 0.0161 0.0160 0.0161 0.0163 0.0165 0.0165 0.0166 0.0169 0.0171 
2091.890662 0.0170 0.0170 0.0170 0.0171 0.0168 0.0165 0.0164 0.0164 0.0163 
2100.570706 0.0161 0.0161 0.0163 0.0166 0.0165 0.0165 0.0167 0.0171 0.0170 
2109.250750 0.0168 0.0168 0.0170 0.0168 0.0165 0.0164 0.0166 0.0166 0.0164 
2117.930795 0.0164 0.0166 0.0169 0.0169 0.0170 0.0172 0.0175 0.0174 0.0173 
2126.610839 0.0173 0.0174 0.0172 0.0169 0.0169 0.0170 0.0169 0.0168 0.0169 
2135.290883 0.0171 0.0172 0.0172 0.0173 0.0174 0.0174 0.0173 0.0172 0.0170 
2143.970927 0.0169 0.0167 0.0167 0.0167 0.0167 0.0166 0.0168 0.0169 0.0170 
2152.650972 0.0170 0.0172 0.0174 0.0173 0.0172 0.0172 0.0171 0.0168 0.0166 
2161.331016 0.0166 0.0166 0.0164 0.0164 0.0167 0.0168 0.0167 0.0170 0.0173 
2170.011060 0.0173 0.0172 0.0174 0.0176 0.0174 0.0172 0.0172 0.0172 0.0168 
2178.691104 0.0167 0.0168 0.0167 0.0166 0.0169 0.0171 0.0170 0.0171 0.0174 
2187.371148 0.0173 0.0171 0.0172 0.0171 0.0168 0.0167 0.0167 0.0166 0.0165 
2196.051193 0.0166 0.0168 0.0168 0.0169 0.0171 0.0171 0.0171 0.0172 0.0172 
2204.731237 0.0170 0.0169 0.0168 0.0166 0.0164 0.0163 0.0163 0.0162 0.0163 
2213.411281 0.0163 0.0164 0.0166 0.0167 0.0168 0.0169 0.0170 0.0169 0.0169 
2222.091325 0.0168 0.0167 0.0166 0.0165 0.0165 0.0166 0.0167 0.0169 0.0171 
2230.771370 0.0174 0.0176 0.0177 0.0178 0.0178 0.0177 0.0176 0.0175 0.0172 
2239.451414 0.0171 0.0169 0.0169 0.0168 0.0169 0.0169 0.0170 0.0172 0.0173 
2248.131458 0.0175 0.0176 0.0177 0.0178 0.0178 0.0177 0.0177 0.0176 0.0176 
2256.811502 0.0174 0.0174 0.0174 0.0176 0.0177 0.0179 0.0181 0.0183 0.0184 
2265.491547 0.0185 0.0185 0.0186 0.0185 0.0184 0.0183 0.0182 0.0181 0.0181 
2274.171591 0.0180 0.0181 0.0181 0.0183 0.0184 0.0185 0.0187 0.0188 0.0189 
2282.851635 0.0189 0.0190 0.0193 0.0193 0.0198 0.0200 0.0204 0.0210 0.0211 
2291.531679 0.0220 0.0222 0.0233 0.0239 0.0245 0.0259 0.0258 0.0275 0.0272 
2300.211724 0.0287 0.0289 0.0293 0.0303 0.0302 0.0325 0.0325 0.0355 0.0352 
2308.891768 0.0376 0.0376 0.0394 0.0400 0.0399 0.0406 0.0388 0.0397 0.0393 
2317.571812 0.0412 0.0417 0.0443 0.0445 0.0466 0.0459 0.0474 0.0459 0.0451 
2326.251856 0.0441 0.0452 0.0452 0.0464 0.0466 0.0472 0.0457 0.0445 0.0427 
2334.931901 0.0416 0.0423 0.0433 0.0413 0.0417 0.0429 0.0436 0.0438 0.0449 
2343.611945 0.0463 0.0479 0.0480 0.0460 0.0429 0.0411 0.0422 0.0453 0.0465 
2352.291989 0.0471 0.0474 0.0499 0.0513 0.0520 0.0525 0.0544 0.0545 0.0546 
2360.972033 0.0536 0.0537 0.0531 0.0528 0.0520 0.0511 0.0499 0.0494 0.0483 
2369.652078 0.0475 0.0464 0.0455 0.0443 0.0434 0.0424 0.0414 0.0403 0.0392 
2378.332122 0.0378 0.0360 0.0339 0.0316 0.0290 0.0265 0.0243 0.0225 0.0212 
2387.012166 0.0202 0.0195 0.0191 0.0189 0.0188 0.0187 0.0186 0.0185 0.0184 
2395.692210 0.0183 0.0182 0.0181 0.0180 0.0180 0.0180 0.0180 0.0180 0.0181 
2404.372254 0.0183 0.0184 0.0185 0.0185 0.0185 0.0185 0.0184 0.0183 0.0182 
2413.052299 0.0181 0.0180 0.0179 0.0178 0.0178 0.0179 0.0179 0.0180 0.0182 
2421.732343 0.0183 0.0184 0.0184 0.0184 0.0184 0.0183 0.0182 0.0180 0.0179 
2430.412387 0.0178 0.0177 0.0176 0.0177 0.0178 0.0178 0.0180 0.0180 0.0181 
2439.092431 0.0182 0.0182 0.0181 0.0181 0.0180 0.0179 0.0178 0.0178 0.0177 
2447.772476 0.0177 0.0177 0.0178 0.0179 0.0180 0.0181 0.0182 0.0184 0.0185 
2456.452520 0.0185 0.0185 0.0184 0.0184 0.0183 0.0182 0.0182 0.0182 0.0182 
2465.132564 0.0183 0.0184 0.0186 0.0187 0.0188 0.0189 0.0191 0.0191 0.0191 
2473.812608 0.0192 0.0192 0.0191 0.0190 0.0190 0.0189 0.0188 0.0188 0.0189 
2482.492653 0.0190 0.0191 0.0191 0.0192 0.0193 0.0193 0.0193 0.0193 0.0193 
2491.172697 0.0192 0.0191 0.0190 0.0190 0.0190 0.0190 0.0191 0.0192 0.0193 
2499.852741 0.0194 0.0195 0.0195 0.0195 0.0196 0.0196 0.0195 0.0194 0.0194 
2508.532785 0.0193 0.0192 0.0192 0.0193 0.0193 0.0194 0.0195 0.0196 0.0198 
2517.212830 0.0199 0.0200 0.0200 0.0200 0.0199 0.0198 0.0197 0.0196 0.0195 
2525.892874 0.0193 0.0193 0.0194 0.0194 0.0194 0.0195 0.0196 0.0197 0.0197 
2534.572918 0.0198 0.0197 0.0197 0.0195 0.0194 0.0192 0.0192 0.0191 0.0190 
2543.252962 0.0190 0.0190 0.0191 0.0191 0.0192 0.0194 0.0195 0.0195 0.0195 
2551.933007 0.0194 0.0194 0.0193 0.0191 0.0190 0.0190 0.0190 0.0190 0.0190 
2560.613051 0.0191 0.0192 0.0193 0.0195 0.0196 0.0197 0.0198 0.0198 0.0197 
2569.293095 0.0196 0.0196 0.0196 0.0195 0.0195 0.0195 0.0195 0.0197 0.0198 
2577.973139 0.0199 0.0201 0.0203 0.0204 0.0205 0.0207 0.0207 0.0207 0.0207 
2586.653184 0.0206 0.0206 0.0206 0.0207 0.0207 0.0209 0.0210 0.0212 0.0213 
2595.333228 0.0215 0.0216 0.0217 0.0217 0.0217 0.0217 0.0217 0.0217 0.0217 
2604.013272 0.0217 0.0218 0.0219 0.0219 0.0220 0.0222 0.0223 0.0224 0.0225 
2612.693316 0.0225 0.0226 0.0227 0.0226 0.0225 0.0225 0.0224 0.0223 0.0223 
2621.373360 0.0223 0.0223 0.0223 0.0223 0.0225 0.0226 0.0227 0.0229 0.0230 
2630.053405 0.0229 0.0229 0.0229 0.0228 0.0228 0.0229 0.0230 0.0231 0.0233 
2638.733449 0.0234 0.0236 0.0238 0.0241 0.0244 0.0246 0.0248 0.0250 0.0251 
2647.413493 0.0253 0.0254 0.0255 0.0257 0.0258 0.0260 0.0262 0.0265 0.0269 
2656.093537 0.0273 0.0277 0.0282 0.0286 0.0288 0.0290 0.0290 0.0290 0.0291 
2664.773582 0.0292 0.0295 0.0298 0.0300 0.0300 0.0299 0.0296 0.0292 0.0288 
2673.453626 0.0283 0.0280 0.0276 0.0273 0.0269 0.0266 0.0262 0.0258 0.0255 
2682.133670 0.0252 0.0250 0.0249 0.0248 0.0248 0.0247 0.0247 0.0247 0.0247 
2690.813714 0.0247 0.0246 0.0245 0.0244 0.0243 0.0242 0.0241 0.0240 0.0240 
2699.493759 0.0239 0.0239 0.0239 0.0241 0.0242 0.0243 0.0244 0.0245 0.0245 
2708.173803 0.0245 0.0245 0.0244 0.0243 0.0242 0.0241 0.0240 0.0239 0.0239 
2716.853847 0.0238 0.0238 0.0239 0.0239 0.0239 0.0240 0.0242 0.0242 0.0243 
2725.533891 0.0243 0.0242 0.0241 0.0240 0.0240 0.0240 0.0239 0.0239 0.0240 
2734.213936 0.0240 0.0242 0.0244 0.0245 0.0246 0.0246 0.0248 0.0248 0.0249 
2742.893980 0.0249 0.0250 0.0250 0.0251 0.0251 0.0252 0.0253 0.0254 0.0256 
2751.574024 0.0258 0.0260 0.0262 0.0264 0.0266 0.0268 0.0269 0.0270 0.0270 
2760.254068 0.0270 0.0270 0.0271 0.0272 0.0273 0.0274 0.0276 0.0279 0.0282 
2768.934113 0.0286 0.0289 0.0292 0.0295 0.0298 0.0299 0.0299 0.0299 0.0299 
2777.614157 0.0300 0.0299 0.0299 0.0301 0.0303 0.0304 0.0305 0.0308 0.0310 
2786.294201 0.0313 0.0317 0.0321 0.0326 0.0331 0.0336 0.0339 0.0342 0.0342 
2794.974245 0.0342 0.0341 0.0340 0.0338 0.0336 0.0335 0.0333 0.0332 0.0331 
2803.654290 0.0331 0.0332 0.0334 0.0335 0.0337 0.0340 0.0343 0.0345 0.0348 
2812.334334 0.0351 0.0354 0.0358 0.0363 0.0368 0.0374 0.0381 0.0389 0.0396 
2821.014378 0.0403 0.0412 0.0421 0.0431 0.0440 0.0450 0.0461 0.0473 0.0484 
2829.694422 0.0496 0.0509 0.0524 0.0540 0.0558 0.0578 0.0600 0.0626 0.0654 
2838.374466 0.0687 0.0725 0.0768 0.0816 0.0872 0.0935 0.1008 0.1088 0.1179 
2847.054511 0.1277 0.1385 0.1503 0.1631 0.1769 0.1918 0.2074 0.2233 0.2383 
2855.734555 0.2514 0.2607 0.2658 0.2656 0.2607 0.2520 0.2407 0.2280 0.2154 
2864.414599 0.2032 0.1918 0.1809 0.1704 0.1602 0.1505 0.1416 0.1337 0.1269 
2873.094643 0.1212 0.1165 0.1127 0.1097 0.1074 0.1057 0.1043 0.1030 0.1020 
2881.774688 0.1012 0.1007 0.1006 0.1009 0.1015 0.1027 0.1044 0.1066 0.1090 
2890.454732 0.1118 0.1147 0.1180 0.1213 0.1250 0.1291 0.1338 0.1387 0.1434 
2899.134776 0.1475 0.1513 0.1549 0.1591 0.1642 0.1699 0.1756 0.1804 0.1835 
2907.814820 0.1851 0.1861 0.1880 0.1912 0.1959 0.2018 0.2089 0.2167 0.2253 
2916.494865 0.2348 0.2459 0.2585 0.2729 0.2895 0.3085 0.3295 0.3524 0.3757 
2925.174909 0.3989 0.4212 0.4430 0.4642 0.4849 0.5044 0.5225 0.5363 0.5461 
2933.854953 0.5509 0.5513 0.5463 0.5375 0.5243 0.5078 0.4879 0.4658 0.4412 
2942.534997 0.4155 0.3890 0.3630 0.3374 0.3124 0.2885 0.2664 0.2456 0.2266 
2951.215042 0.2091 0.1934 0.1795 0.1674 0.1567 0.1474 0.1391 0.1321 0.1259 
2959.895086 0.1206 0.1157 0.1113 0.1070 0.1028 0.0986 0.0946 0.0908 0.0870 
2968.575130 0.0833 0.0798 0.0763 0.0730 0.0698 0.0668 0.0639 0.0613 0.0588 
2977.255174 0.0565 0.0543 0.0525 0.0508 0.0492 0.0476 0.0463 0.0449 0.0438 
2985.935219 0.0427 0.0417 0.0408 0.0400 0.0393 0.0386 0.0379 0.0373 0.0366 
2994.615263 0.0360 0.0355 0.0350 0.0345 0.0339 0.0335 0.0330 0.0326 0.0323 
3003.295307 0.0319 0.0317 0.0315 0.0313 0.0312 0.0311 0.0308 0.0305 0.0303 
3011.975351 0.0300 0.0297 0.0296 0.0295 0.0292 0.0291 0.0290 0.0289 0.0289 
3020.655396 0.0289 0.0289 0.0288 0.0287 0.0286 0.0284 0.0283 0.0283 0.0282 
3029.335440 0.0279 0.0273 0.0269 0.0270 0.0272 0.0271 0.0271 0.0272 0.0273 
3038.015484 0.0273 0.0273 0.0273 0.0273 0.0272 0.0271 0.0270 0.0269 0.0268 
3046.695528 0.0267 0.0264 0.0262 0.0262 0.0264 0.0266 0.0266 0.0267 0.0267 
3055.375572 0.0264 0.0261 0.0263 0.0265 0.0264 0.0263 0.0263 0.0262 0.0260 
3064.055617 0.0256 0.0256 0.0257 0.0255 0.0258 0.0262 0.0263 0.0264 0.0265 
3072.735661 0.0265 0.0265 0.0264 0.0264 0.0263 0.0261 0.0259 0.0257 0.0257 
3081.415705 0.0259 0.0260 0.0262 0.0264 0.0265 0.0265 0.0266 0.0268 0.0268 
3090.095749 0.0268 0.0268 0.0268 0.0267 0.0266 0.0263 0.0259 0.0262 0.0266 
3098.775794 0.0267 0.0265 0.0263 0.0264 0.0267 0.0270 0.0273 0.0274 0.0273 
3107.455838 0.0272 0.0273 0.0273 0.0272 0.0272 0.0271 0.0272 0.0272 0.0270 
3116.135882 0.0269 0.0273 0.0275 0.0274 0.0277 0.0279 0.0274 0.0273 0.0278 
3124.815926 0.0279 0.0277 0.0276 0.0279 0.0282 0.0284 0.0284 0.0283 0.0280 
3133.495971 0.0280 0.0286 0.0290 0.0291 0.0292 0.0292 0.0291 0.0291 0.0291 
3142.176015 0.0291 0.0291 0.0292 0.0294 0.0295 0.0297 0.0298 0.0300 0.0302 
3150.856059 0.0303 0.0303 0.0304 0.0304 0.0305 0.0304 0.0304 0.0304 0.0303 
3159.536103 0.0304 0.0304 0.0305 0.0307 0.0308 0.0309 0.0310 0.0311 0.0311 
3168.216148 0.0312 0.0312 0.0312 0.0312 0.0312 0.0312 0.0312 0.0313 0.0313 
3176.896192 0.0311 0.0306 0.0309 0.0316 0.0319 0.0321 0.0322 0.0321 0.0319 
3185.576236 0.0319 0.0322 0.0324 0.0325 0.0325 0.0326 0.0326 0.0327 0.0329 
3194.256280 0.0330 0.0331 0.0330 0.0329 0.0329 0.0334 0.0337 0.0339 0.0340 
3202.936325 0.0341 0.0342 0.0342 0.0342 0.0342 0.0343 0.0343 0.0341 0.0346 
3211.616369 0.0351 0.0351 0.0347 0.0347 0.0354 0.0356 0.0358 0.0357 0.0354 
3220.296413 0.0355 0.0358 0.0360 0.0363 0.0366 0.0367 0.0368 0.0369 0.0371 
3228.976457 0.0373 0.0374 0.0377 0.0379 0.0378 0.0380 0.0382 0.0381 0.0380 
3237.656502 0.0382 0.0384 0.0385 0.0387 0.0389 0.0391 0.0392 0.0388 0.0388 
3246.336546 0.0395 0.0400 0.0402 0.0403 0.0402 0.0403 0.0403 0.0402 0.0399 
3255.016590 0.0402 0.0407 0.0407 0.0409 0.0411 0.0412 0.0413 0.0415 0.0417 
3263.696634 0.0418 0.0417 0.0417 0.0419 0.0421 0.0422 0.0421 0.0421 0.0421 
3272.376678 0.0420 0.0416 0.0418 0.0423 0.0422 0.0424 0.0429 0.0430 0.0429 
3281.056723 0.0430 0.0432 0.0432 0.0432 0.0432 0.0432 0.0432 0.0431 0.0432 
3289.736767 0.0434 0.0435 0.0434 0.0434 0.0437 0.0440 0.0441 0.0441 0.0440 
3298.416811 0.0440 0.0441 0.0442 0.0442 0.0444 0.0445 0.0445 0.0446 0.0447 
3307.096855 0.0448 0.0446 0.0446 0.0451 0.0453 0.0451 0.0448 0.0450 0.0453 
3315.776900 0.0455 0.0455 0.0455 0.0455 0.0457 0.0460 0.0460 0.0460 0.0461 
3324.456944 0.0464 0.0465 0.0466 0.0467 0.0468 0.0468 0.0469 0.0468 0.0468 
3333.136988 0.0469 0.0470 0.0472 0.0472 0.0473 0.0476 0.0478 0.0479 0.0481 
3341.817032 0.0482 0.0482 0.0483 0.0483 0.0483 0.0483 0.0484 0.0486 0.0486 
3350.497077 0.0485 0.0486 0.0488 0.0489 0.0489 0.0490 0.0492 0.0493 0.0494 
3359.177121 0.0494 0.0493 0.0493 0.0494 0.0493 0.0492 0.0490 0.0490 0.0493 
3367.857165 0.0497 0.0499 0.0500 0.0502 0.0504 0.0504 0.0504 0.0504 0.0504 
3376.537209 0.0504 0.0504 0.0505 0.0505 0.0504 0.0504 0.0505 0.0504 0.0503 
3385.217254 0.0503 0.0506 0.0510 0.0511 0.0512 0.0512 0.0511 0.0506 0.0504 
3393.897298 0.0508 0.0509 0.0507 0.0504 0.0506 0.0508 0.0510 0.0511 0.0512 
3402.577342 0.0511 0.0511 0.0512 0.0514 0.0515 0.0515 0.0514 0.0513 0.0513 
3411.257386 0.0513 0.0512 0.0512 0.0510 0.0509 0.0509 0.0509 0.0507 0.0505 
3419.937431 0.0499 0.0495 0.0496 0.0499 0.0499 0.0496 0.0494 0.0492 0.0491 
3428.617475 0.0490 0.0489 0.0484 0.0481 0.0482 0.0485 0.0487 0.0487 0.0486 
3437.297519 0.0485 0.0481 0.0477 0.0476 0.0473 0.0467 0.0467 0.0471 0.0472 
3445.977563 0.0464 0.0451 0.0456 0.0469 0.0474 0.0475 0.0474 0.0474 0.0474 
3454.657608 0.0473 0.0473 0.0473 0.0474 0.0475 0.0475 0.0473 0.0468 0.0467 
3463.337652 0.0472 0.0477 0.0478 0.0477 0.0477 0.0478 0.0478 0.0479 0.0479 
3472.017696 0.0478 0.0477 0.0474 0.0471 0.0472 0.0474 0.0477 0.0478 0.0479 
3480.697740 0.0476 0.0465 0.0464 0.0474 0.0479 0.0478 0.0474 0.0469 0.0467 
3489.377784 0.0469 0.0471 0.0471 0.0470 0.0469 0.0466 0.0462 0.0459 0.0459 
3498.057829 0.0462 0.0464 0.0465 0.0464 0.0459 0.0442 0.0433 0.0438 0.0443 
3506.737873 0.0445 0.0442 0.0434 0.0432 0.0434 0.0431 0.0431 0.0432 0.0432 
3515.417917 0.0431 0.0430 0.0428 0.0421 0.0415 0.0414 0.0410 0.0398 0.0396 
3524.097961 0.0409 0.0410 0.0397 0.0378 0.0371 0.0370 0.0374 0.0381 0.0387 
3532.778006 0.0388 0.0385 0.0382 0.0377 0.0375 0.0374 0.0369 0.0367 0.0365 
3541.458050 0.0363 0.0354 0.0344 0.0339 0.0347 0.0349 0.0344 0.0337 0.0335 
3550.138094 0.0336 0.0320 0.0298 0.0308 0.0326 0.0330 0.0325 0.0318 0.0318 
3558.818138 0.0320 0.0316 0.0314 0.0310 0.0296 0.0278 0.0276 0.0258 0.0233 
3567.498183 0.0235 0.0260 0.0284 0.0294 0.0301 0.0301 0.0294 0.0284 0.0285 
3576.178227 0.0286 0.0282 0.0286 0.0287 0.0288 0.0295 0.0292 0.0282 0.0278 
3584.858271 0.0279 0.0257 0.0229 0.0228 0.0252 0.0286 0.0299 0.0303 0.0290 
3593.538315 0.0284 0.0284 0.0283 0.0297 0.0302 0.0298 0.0303 0.0298 0.0313 
3602.218360 0.0350 0.0380 0.0402 0.0418 0.0412 0.0410 0.0426 0.0442 0.0497 
3610.898404 0.0531 0.0522 0.0526 0.0563 0.0602 0.0664 0.0695 0.0694 0.0701 
3619.578448 0.0727 0.0793 0.0854 0.0892 0.0901 0.0892 0.0857 0.0802 0.0725 
3628.258492 0.0600 0.0476 0.0509 0.0536 0.0526 0.0475 0.0426 0.0419 0.0411 
3636.938537 0.0382 0.0346 0.0335 0.0336 0.0325 0.0305 0.0291 0.0291 0.0280 
3645.618581 0.0235 0.0140 0.0068 0.0056 0.0022 0.0010 0.0078 0.0188 0.0230 
3654.298625 0.0232 0.0188 0.0136 0.0176 0.0222 0.0232 0.0228 0.0231 0.0233 
3662.978669 0.0234 0.0232 0.0231 0.0228 0.0214 0.0166 0.0090 0.0030 0.0021 
3671.658714 0.0114 0.0168 0.0137 0.0010 0.0010 0.0010 0.0116 0.0149 0.0142 
3680.338758 0.0171 0.0214 0.0231 0.0230 0.0221 0.0219 0.0213 0.0160 0.0053 
3689.018802 0.0036 0.0061 0.0050 0.0120 0.0191 0.0215 0.0225 0.0225 0.0227 
3697.698846 0.0233 0.0239 0.0237 0.0205 0.0148 0.0163 0.0212 0.0230 0.0229 
3706.378890 0.0227 0.0219 0.0172 0.0100 0.0084 0.0048 0.0010 0.0115 0.0183 
3715.058935 0.0209 0.0217 0.0216 0.0200 0.0181 0.0196 0.0195 0.0153 0.0153 
3723.738979 0.0190 0.0197 0.0186 0.0185 0.0208 0.0220 0.0215 0.0179 0.0096 
3732.419023 0.0044 0.0081 0.0060 0.0029 0.0060 0.0093 0.0107 0.0145 0.0153 
3741.099067 0.0131 0.0136 0.0111 0.0010 0.0010 0.0059 0.0091 0.0072 0.0010 
3749.779112 0.0010 0.0010 0.0010 0.0010 0.0092 0.0144 0.0140 0.0116 0.0135 
3758.459156 0.0131 0.0073 0.0095 0.0162 0.0186 0.0188 0.0175 0.0136 0.0134 
3767.139200 0.0173 0.0175 0.0116 0.0070 0.0130 0.0183 0.0201 0.0204 0.0206 
3775.819244 0.0206 0.0202 0.0181 0.0126 0.0093 0.0149 0.0190 0.0199 0.0183 
3784.499289 0.0149 0.0154 0.0186 0.0199 0.0202 0.0202 0.0202 0.0201 0.0200 
3793.179333 0.0200 0.0196 0.0165 0.0098 0.0084 0.0133 0.0147 0.0090 0.0010 
3801.859377 0.0010 0.0018 0.0114 0.0151 0.0111 0.0023 0.0049 0.0137 0.0179 
3810.539421 0.0191 0.0193 0.0191 0.0182 0.0142 0.0046 0.0010 0.0079 0.0122 
3819.219466 0.0093 0.0010 0.0010 0.0010 0.0103 0.0143 0.0148 0.0121 0.0102 
3827.899510 0.0136 0.0171 0.0175 0.0130 0.0086 0.0125 0.0134 0.0085 0.0075 
3836.579554 0.0068 0.0010 0.0010 0.0027 0.0034 0.0089 0.0129 0.0106 0.0117 
3845.259598 0.0165 0.0191 0.0196 0.0188 0.0165 0.0141 0.0088 0.0010 0.0010 
3853.939643 0.0010 0.0026 0.0098 0.0118 0.0150 0.0185 0.0194 0.0171 0.0134 
3862.619687 0.0133 0.0114 0.0064 0.0087 0.0160 0.0180 0.0139 0.0039 0.0029 
3871.299731 0.0123 0.0165 0.0134 0.0088 0.0138 0.0191 0.0208 0.0206 0.0175 
3879.979775 0.0114 0.0116 0.0167 0.0178 0.0174 0.0143 0.0111 0.0156 0.0193 
3888.659820 0.0205 0.0190 0.0140 0.0104 0.0142 0.0178 0.0201 0.0210 0.0209 
3897.339864 0.0193 0.0154 0.0131 0.0153 0.0143 0.0138 0.0128 0.0112 0.0130 
3906.019908 0.0159 0.0191 0.0208 0.0213 0.0212 0.0213 0.0213 0.0212 0.0211 
3914.699952 0.0206 0.0193 0.0177 0.0187 0.0193 0.0181 0.0184 0.0199 0.0201 
3923.379996 0.0189 0.0173 0.0175 0.0196 0.0206 0.0198 0.0179 0.0179 0.0188 
3932.060041 0.0188 0.0196 0.0198 0.0200 0.0202 0.0204 0.0206 0.0207 0.0207 
3940.740085 0.0206 0.0194 0.0189 0.0198 0.0206 0.0207 0.0204 0.0206 0.0204 
3949.420129 0.0194 0.0193 0.0198 0.0196 0.0195 0.0202 0.0209 0.0209 0.0209 
3958.100173 0.0210 0.0210 0.0211 0.0210 0.0212 0.0213 0.0211 0.0212 0.0210 
3966.780218 0.0209 0.0209 0.0211 0.0214 0.0212 0.0209 0.0206 0.0204 0.0209 
3975.460262 0.0217 0.0219 0.0215 0.0213 0.0214 0.0214 0.0213 0.0211 0.0210 
3984.140306 0.0212 0.0214 0.0215 0.0216 0.0218 0.0220 0.0222 0.0223 0.0221 
3992.820350 0.0219 0.0218 0.0215 0.0216 0.0217 0.0217 0.0218 0.0219 0.0218 
##END=
