##JCAMP-DX=5.01
##FILENAME=KAM-14.jdx
##XUNITS=1/CM
##YUNITS=ABSORBANCE
##FIRSTX=399.282035
##LASTX=4000.535945
##MAXX=4000.535945
##MINX=399.282035
##FIRSTY=0.0010
##LASTY=0.0195
##MAXY=1.5715
##MINY=0.0004
##NPOINTS=3735
##XFACTOR=1
##YFACTOR=1
##XYDATA=(X++(Y..Y))
399.282035 0.0010 0.0010 0.0010 0.0004 0.0063 0.0135 0.0138 0.0121 0.0145 0.0147 
408.926529 0.0121 0.0100 0.0092 0.0104 0.0092 0.0053 0.0048 0.0115 0.0145 0.0092 
418.571022 0.0007 0.0010 0.0027 0.0060 0.0078 0.0103 0.0099 0.0099 0.0108 0.0125 
428.215516 0.0109 0.0099 0.0129 0.0139 0.0137 0.0146 0.0143 0.0143 0.0148 0.0142 
437.860009 0.0127 0.0118 0.0123 0.0123 0.0103 0.0087 0.0092 0.0121 0.0139 0.0128 
447.504503 0.0129 0.0135 0.0137 0.0137 0.0141 0.0151 0.0171 0.0172 0.0160 0.0160 
457.148997 0.0155 0.0174 0.0188 0.0182 0.0188 0.0200 0.0190 0.0171 0.0165 0.0158 
466.793490 0.0138 0.0135 0.0132 0.0126 0.0126 0.0136 0.0140 0.0129 0.0119 0.0122 
476.437984 0.0123 0.0122 0.0129 0.0136 0.0140 0.0151 0.0162 0.0157 0.0156 0.0163 
486.082477 0.0173 0.0183 0.0184 0.0187 0.0184 0.0179 0.0175 0.0176 0.0181 0.0188 
495.726971 0.0191 0.0186 0.0184 0.0195 0.0199 0.0194 0.0191 0.0196 0.0200 0.0203 
505.371465 0.0209 0.0217 0.0224 0.0232 0.0238 0.0245 0.0254 0.0264 0.0265 0.0261 
515.015958 0.0259 0.0264 0.0261 0.0260 0.0263 0.0257 0.0253 0.0253 0.0249 0.0240 
524.660452 0.0235 0.0235 0.0234 0.0233 0.0229 0.0230 0.0229 0.0224 0.0224 0.0222 
534.304945 0.0218 0.0213 0.0208 0.0218 0.0225 0.0228 0.0226 0.0226 0.0226 0.0226 
543.949439 0.0226 0.0226 0.0224 0.0226 0.0234 0.0240 0.0241 0.0246 0.0256 0.0257 
553.593933 0.0255 0.0256 0.0252 0.0244 0.0239 0.0237 0.0231 0.0226 0.0225 0.0221 
563.238426 0.0216 0.0219 0.0222 0.0221 0.0221 0.0220 0.0214 0.0212 0.0213 0.0218 
572.882920 0.0215 0.0212 0.0211 0.0212 0.0214 0.0212 0.0210 0.0207 0.0205 0.0204 
582.527413 0.0203 0.0202 0.0201 0.0201 0.0199 0.0197 0.0195 0.0196 0.0197 0.0195 
592.171907 0.0193 0.0195 0.0196 0.0193 0.0191 0.0193 0.0192 0.0190 0.0189 0.0189 
601.816401 0.0188 0.0186 0.0183 0.0181 0.0183 0.0184 0.0184 0.0181 0.0178 0.0178 
611.460894 0.0178 0.0177 0.0177 0.0176 0.0175 0.0172 0.0169 0.0165 0.0163 0.0158 
621.105388 0.0152 0.0151 0.0151 0.0148 0.0146 0.0143 0.0141 0.0139 0.0133 0.0127 
630.749881 0.0129 0.0133 0.0140 0.0149 0.0154 0.0159 0.0163 0.0162 0.0161 0.0162 
640.394375 0.0161 0.0161 0.0161 0.0161 0.0160 0.0162 0.0161 0.0159 0.0158 0.0156 
650.038869 0.0010 0.0010 0.0010 0.0010 0.0010 0.0010 0.0010 0.0010 0.0010 0.0010 
659.683362 0.0010 0.0010 0.0010 0.0010 0.0010 0.0010 0.0010 0.0010 0.0010 0.0010 
669.327856 0.0010 0.0010 0.0010 0.0010 0.0010 0.0010 0.0010 0.0010 0.0010 0.0010 
678.972349 0.0010 0.0010 0.0010 0.0010 0.0010 0.0010 0.0010 0.0010 0.0010 0.0010 
688.616843 0.0010 0.0010 0.0010 0.0010 0.0010 0.0010 0.0010 0.0010 0.0010 0.0010 
698.261337 0.0010 0.0010 0.0010 0.0010 0.0010 0.0010 0.0010 0.0010 0.0010 0.0010 
707.905830 0.0010 0.0010 0.0010 0.0010 0.0010 0.0010 0.0010 0.0010 0.0010 0.0010 
717.550324 0.0010 0.0010 0.0010 0.0010 0.0010 0.0010 0.0010 0.0010 0.0010 0.0010 
727.194817 0.0010 0.0010 0.0010 0.0010 0.0010 0.0010 0.0010 0.0010 0.0010 0.0010 
736.839311 0.0010 0.0010 0.0010 0.0010 0.0010 0.0010 0.0010 0.0010 0.0010 0.0010 
746.483805 0.0010 0.0010 0.0010 0.0010 0.0010 0.0010 0.0010 0.0010 0.0010 0.0010 
756.128298 0.0010 0.0010 0.0010 0.0010 0.0010 0.0010 0.0010 0.0010 0.0010 0.0010 
765.772792 0.0010 0.0010 0.0010 0.0010 0.0010 0.0010 0.0010 0.0010 0.0010 0.0010 
775.417285 0.0010 0.0010 0.0010 0.0010 0.0010 0.0010 0.0010 0.0010 0.0010 0.0010 
785.061779 0.0010 0.0010 0.0010 0.0010 0.0010 0.0010 0.0010 0.0010 0.0010 0.0010 
794.706273 0.0010 0.0010 0.0010 0.0010 0.0010 0.0010 0.0010 0.0010 0.0010 0.0010 
804.350766 0.0010 0.0010 0.0010 0.0010 0.0010 0.0010 0.0010 0.0010 0.0010 0.0010 
813.995260 0.0010 0.0010 0.0010 0.0010 0.0010 0.0010 0.0010 0.0010 0.0010 0.0010 
823.639753 0.0010 0.0010 0.0010 0.0010 0.0010 0.0010 0.0010 0.0010 0.0010 0.0010 
833.284247 0.0010 0.0010 0.0010 0.0010 0.0010 0.0010 0.0010 0.0010 0.0010 0.0010 
842.928741 0.0010 0.0010 0.0010 0.0010 0.0010 0.0010 0.0010 0.0010 0.0010 0.0010 
852.573234 0.0010 0.0010 0.0010 0.0010 0.0010 0.0010 0.0010 0.0010 0.0158 0.0164 
862.217728 0.0170 0.0178 0.0184 0.0189 0.0192 0.0192 0.0189 0.0185 0.0180 0.0176 
871.862221 0.0175 0.0178 0.0181 0.0185 0.0192 0.0200 0.0206 0.0210 0.0211 0.0210 
881.506715 0.0206 0.0202 0.0198 0.0197 0.0195 0.0195 0.0199 0.0205 0.0213 0.0225 
891.151209 0.0239 0.0255 0.0272 0.0289 0.0308 0.0331 0.0358 0.0385 0.0404 0.0407 
900.795702 0.0396 0.0373 0.0342 0.0308 0.0276 0.0249 0.0226 0.0210 0.0200 0.0192 
910.440196 0.0187 0.0184 0.0182 0.0182 0.0184 0.0187 0.0190 0.0195 0.0200 0.0207 
920.084689 0.0215 0.0224 0.0236 0.0251 0.0269 0.0289 0.0311 0.0332 0.0353 0.0370 
929.729183 0.0383 0.0391 0.0395 0.0394 0.0391 0.0388 0.0388 0.0388 0.0387 0.0389 
939.373677 0.0394 0.0404 0.0417 0.0433 0.0450 0.0470 0.0494 0.0521 0.0551 0.0586 
949.018170 0.0624 0.0665 0.0707 0.0746 0.0784 0.0820 0.0853 0.0882 0.0905 0.0927 
958.662664 0.0951 0.0976 0.0995 0.0999 0.0980 0.0941 0.0891 0.0838 0.0789 0.0745 
968.307157 0.0707 0.0677 0.0659 0.0651 0.0649 0.0651 0.0652 0.0655 0.0665 0.0687 
977.951651 0.0718 0.0753 0.0784 0.0805 0.0806 0.0791 0.0767 0.0743 0.0726 0.0718 
987.596145 0.0718 0.0727 0.0741 0.0752 0.0758 0.0757 0.0747 0.0734 0.0717 0.0700 
997.240638 0.0686 0.0674 0.0665 0.0661 0.0661 0.0666 0.0677 0.0698 0.0728 0.0765 
1006.885132 0.0807 0.0845 0.0872 0.0883 0.0881 0.0871 0.0856 0.0835 0.0811 
1015.565176 0.0792 0.0782 0.0781 0.0788 0.0801 0.0818 0.0837 0.0857 0.0880 
1024.245220 0.0907 0.0939 0.0976 0.1012 0.1040 0.1051 0.1043 0.1027 0.1019 
1032.925265 0.1035 0.1079 0.1151 0.1245 0.1353 0.1460 0.1549 0.1605 0.1615 
1041.605309 0.1586 0.1538 0.1486 0.1435 0.1391 0.1356 0.1332 0.1317 0.1312 
1050.285353 0.1313 0.1319 0.1325 0.1324 0.1318 0.1309 0.1307 0.1317 0.1339 
1058.965397 0.1368 0.1398 0.1425 0.1448 0.1473 0.1507 0.1552 0.1610 0.1678 
1067.645442 0.1750 0.1819 0.1877 0.1915 0.1930 0.1925 0.1904 0.1873 0.1838 
1076.325486 0.1802 0.1769 0.1743 0.1726 0.1718 0.1719 0.1733 0.1761 0.1808 
1085.005530 0.1876 0.1964 0.2076 0.2212 0.2374 0.2562 0.2778 0.3020 0.3285 
1093.685574 0.3568 0.3864 0.4165 0.4459 0.4739 0.4995 0.5219 0.5410 0.5575 
1102.365618 0.5722 0.5859 0.5990 0.6105 0.6189 0.6237 0.6242 0.6217 0.6179 
1111.045663 0.6164 0.6198 0.6311 0.6508 0.6775 0.7069 0.7334 0.7530 0.7654 
1119.725707 0.7708 0.7701 0.7640 0.7540 0.7400 0.7225 0.7014 0.6765 0.6475 
1128.405751 0.6153 0.5804 0.5440 0.5074 0.4723 0.4396 0.4096 0.3817 0.3553 
1137.085795 0.3299 0.3058 0.2836 0.2641 0.2475 0.2339 0.2228 0.2140 0.2071 
1145.765840 0.2013 0.1961 0.1911 0.1866 0.1825 0.1788 0.1754 0.1723 0.1690 
1154.445884 0.1653 0.1612 0.1570 0.1527 0.1484 0.1437 0.1386 0.1329 0.1265 
1163.125928 0.1196 0.1122 0.1048 0.0978 0.0914 0.0857 0.0807 0.0767 0.0734 
1171.805972 0.0707 0.0681 0.0653 0.0621 0.0588 0.0554 0.0523 0.0497 0.0475 
1180.486017 0.0458 0.0442 0.0429 0.0418 0.0408 0.0399 0.0390 0.0383 0.0375 
1189.166061 0.0368 0.0362 0.0358 0.0355 0.0351 0.0346 0.0343 0.0341 0.0338 
1197.846105 0.0335 0.0333 0.0331 0.0330 0.0327 0.0324 0.0322 0.0319 0.0317 
1206.526149 0.0316 0.0315 0.0315 0.0314 0.0314 0.0314 0.0316 0.0317 0.0318 
1215.206194 0.0320 0.0325 0.0333 0.0345 0.0357 0.0374 0.0394 0.0415 0.0439 
1223.886238 0.0465 0.0494 0.0527 0.0564 0.0606 0.0653 0.0705 0.0758 0.0803 
1232.566282 0.0833 0.0845 0.0834 0.0804 0.0759 0.0705 0.0653 0.0608 0.0572 
1241.246326 0.0547 0.0529 0.0518 0.0513 0.0512 0.0513 0.0514 0.0514 0.0516 
1249.926371 0.0518 0.0522 0.0527 0.0533 0.0539 0.0546 0.0549 0.0551 0.0551 
1258.606415 0.0549 0.0546 0.0547 0.0550 0.0556 0.0566 0.0577 0.0589 0.0598 
1267.286459 0.0602 0.0599 0.0589 0.0572 0.0550 0.0526 0.0501 0.0478 0.0457 
1275.966503 0.0440 0.0425 0.0415 0.0407 0.0403 0.0400 0.0401 0.0403 0.0407 
1284.646548 0.0413 0.0420 0.0429 0.0440 0.0452 0.0465 0.0480 0.0498 0.0517 
1293.326592 0.0539 0.0563 0.0589 0.0617 0.0648 0.0678 0.0701 0.0716 0.0725 
1302.006636 0.0731 0.0737 0.0738 0.0732 0.0719 0.0699 0.0671 0.0634 0.0593 
1310.686680 0.0555 0.0525 0.0501 0.0483 0.0474 0.0470 0.0471 0.0475 0.0478 
1319.366724 0.0479 0.0474 0.0464 0.0454 0.0446 0.0440 0.0436 0.0434 0.0434 
1328.046769 0.0439 0.0446 0.0459 0.0478 0.0506 0.0543 0.0588 0.0634 0.0672 
1336.726813 0.0691 0.0688 0.0670 0.0650 0.0632 0.0621 0.0613 0.0606 0.0606 
1345.406857 0.0614 0.0633 0.0661 0.0697 0.0740 0.0791 0.0843 0.0900 0.0963 
1354.086901 0.1041 0.1148 0.1265 0.1352 0.1392 0.1395 0.1400 0.1435 0.1492 
1362.766946 0.1544 0.1592 0.1612 0.1630 0.1656 0.1689 0.1738 0.1802 0.1868 
1371.446990 0.1936 0.1993 0.2052 0.2129 0.2233 0.2355 0.2485 0.2576 0.2541 
1380.127034 0.2361 0.2113 0.1849 0.1610 0.1409 0.1248 0.1128 0.1032 0.0937 
1388.807078 0.0879 0.0840 0.0805 0.0777 0.0756 0.0739 0.0720 0.0700 0.0685 
1397.487123 0.0672 0.0659 0.0644 0.0631 0.0623 0.0614 0.0609 0.0605 0.0604 
1406.167167 0.0605 0.0612 0.0620 0.0632 0.0642 0.0651 0.0651 0.0643 0.0628 
1414.847211 0.0613 0.0597 0.0583 0.0567 0.0559 0.0547 0.0548 0.0548 0.0551 
1423.527255 0.0555 0.0571 0.0586 0.0611 0.0646 0.0695 0.0759 0.0879 0.1007 
1432.207300 0.1135 0.1224 0.1219 0.1145 0.1069 0.0951 0.0900 0.0877 0.0863 
1440.887344 0.0861 0.0875 0.0903 0.0950 0.1012 0.1096 0.1186 0.1309 0.1491 
1449.567388 0.1628 0.1741 0.1834 0.1956 0.2115 0.2313 0.2548 0.2767 0.2944 
1458.247432 0.2967 0.2903 0.2888 0.2903 0.2979 0.3095 0.3259 0.3533 0.3709 
1466.927477 0.3546 0.3175 0.2736 0.2379 0.2115 0.1890 0.1629 0.1467 0.1348 
1475.607521 0.1280 0.1176 0.1121 0.1097 0.1089 0.1085 0.1083 0.1074 0.1066 
1484.287565 0.1049 0.1014 0.0951 0.0847 0.0729 0.0657 0.0562 0.0488 0.0447 
1492.967609 0.0419 0.0388 0.0368 0.0346 0.0321 0.0306 0.0294 0.0274 0.0010 
1501.647654 0.0010 0.0010 0.0010 0.0010 0.0010 0.0010 0.0010 0.0010 0.0010 
1510.327698 0.0010 0.0010 0.0010 0.0010 0.0010 0.0010 0.0010 0.0010 0.0010 
1519.007742 0.0010 0.0010 0.0010 0.0010 0.0010 0.0010 0.0010 0.0010 0.0010 
1527.687786 0.0010 0.0010 0.0010 0.0010 0.0010 0.0010 0.0010 0.0010 0.0010 
1536.367830 0.0010 0.0010 0.0010 0.0010 0.0010 0.0010 0.0010 0.0010 0.0010 
1545.047875 0.0010 0.0010 0.0010 0.0010 0.0010 0.0010 0.0010 0.0010 0.0010 
1553.727919 0.0010 0.0010 0.0010 0.0010 0.0010 0.0010 0.0010 0.0010 0.0010 
1562.407963 0.0010 0.0010 0.0010 0.0010 0.0010 0.0010 0.0010 0.0010 0.0010 
1571.088007 0.0010 0.0010 0.0010 0.0010 0.0010 0.0010 0.0010 0.0010 0.0010 
1579.768052 0.0010 0.0010 0.0010 0.0010 0.0010 0.0010 0.0010 0.0010 0.0010 
1588.448096 0.0010 0.0010 0.0010 0.0010 0.0010 0.0010 0.0010 0.0010 0.0010 
1597.128140 0.0010 0.0010 0.0010 0.0010 0.0010 0.0010 0.0010 0.0010 0.0010 
1605.808184 0.0010 0.0010 0.0010 0.0010 0.0010 0.0010 0.0010 0.0010 0.0010 
1614.488229 0.0010 0.0010 0.0010 0.0010 0.0010 0.0010 0.0010 0.0010 0.0010 
1623.168273 0.0010 0.0010 0.0010 0.0010 0.0010 0.0010 0.0010 0.0010 0.0010 
1631.848317 0.0010 0.0010 0.0010 0.0010 0.0010 0.0010 0.0010 0.0010 0.0010 
1640.528361 0.0010 0.0010 0.0010 0.0010 0.0010 0.0010 0.0010 0.0010 0.0010 
1649.208406 0.0010 0.0127 0.0127 0.0125 0.0110 0.0111 0.0120 0.0124 0.0126 
1657.888450 0.0125 0.0125 0.0126 0.0126 0.0124 0.0123 0.0122 0.0124 0.0125 
1666.568494 0.0125 0.0124 0.0124 0.0122 0.0123 0.0124 0.0125 0.0126 0.0127 
1675.248538 0.0125 0.0125 0.0127 0.0128 0.0128 0.0130 0.0130 0.0130 0.0127 
1683.928583 0.0117 0.0121 0.0132 0.0135 0.0138 0.0140 0.0142 0.0145 0.0147 
1692.608627 0.0148 0.0147 0.0145 0.0141 0.0136 0.0140 0.0142 0.0141 0.0131 
1701.288671 0.0146 0.0153 0.0156 0.0157 0.0160 0.0163 0.0168 0.0174 0.0178 
1709.968715 0.0180 0.0183 0.0185 0.0187 0.0187 0.0187 0.0186 0.0186 0.0184 
1718.648760 0.0185 0.0187 0.0187 0.0187 0.0188 0.0189 0.0191 0.0195 0.0199 
1727.328804 0.0206 0.0212 0.0217 0.0222 0.0225 0.0225 0.0220 0.0207 0.0202 
1736.008848 0.0201 0.0196 0.0189 0.0180 0.0171 0.0165 0.0160 0.0154 0.0146 
1744.688892 0.0141 0.0137 0.0133 0.0128 0.0123 0.0120 0.0118 0.0117 0.0116 
1753.368936 0.0115 0.0114 0.0112 0.0111 0.0110 0.0109 0.0109 0.0108 0.0105 
1762.048981 0.0104 0.0105 0.0106 0.0106 0.0105 0.0104 0.0104 0.0106 0.0104 
1770.729025 0.0102 0.0099 0.0099 0.0102 0.0103 0.0103 0.0104 0.0104 0.0104 
1779.409069 0.0104 0.0104 0.0105 0.0105 0.0105 0.0105 0.0106 0.0107 0.0108 
1788.089113 0.0108 0.0108 0.0108 0.0109 0.0108 0.0110 0.0112 0.0112 0.0114 
1796.769158 0.0115 0.0115 0.0115 0.0115 0.0116 0.0117 0.0118 0.0118 0.0117 
1805.449202 0.0117 0.0117 0.0116 0.0116 0.0116 0.0116 0.0116 0.0116 0.0117 
1814.129246 0.0116 0.0117 0.0117 0.0117 0.0117 0.0117 0.0117 0.0117 0.0117 
1822.809290 0.0117 0.0116 0.0116 0.0117 0.0116 0.0116 0.0115 0.0113 0.0116 
1831.489335 0.0117 0.0117 0.0118 0.0118 0.0117 0.0116 0.0117 0.0117 0.0117 
1840.169379 0.0117 0.0117 0.0117 0.0115 0.0114 0.0114 0.0115 0.0115 0.0116 
1848.849423 0.0117 0.0117 0.0117 0.0117 0.0117 0.0117 0.0117 0.0117 0.0116 
1857.529467 0.0116 0.0115 0.0115 0.0114 0.0113 0.0113 0.0112 0.0111 0.0110 
1866.209512 0.0109 0.0108 0.0106 0.0106 0.0107 0.0108 0.0108 0.0108 0.0108 
1874.889556 0.0108 0.0108 0.0107 0.0107 0.0107 0.0107 0.0106 0.0107 0.0107 
1883.569600 0.0107 0.0107 0.0107 0.0108 0.0109 0.0109 0.0109 0.0111 0.0111 
1892.249644 0.0112 0.0112 0.0113 0.0114 0.0116 0.0116 0.0118 0.0119 0.0120 
1900.929689 0.0121 0.0121 0.0122 0.0123 0.0124 0.0125 0.0127 0.0128 0.0128 
1909.609733 0.0128 0.0130 0.0130 0.0131 0.0131 0.0132 0.0133 0.0133 0.0133 
1918.289777 0.0136 0.0136 0.0137 0.0137 0.0138 0.0141 0.0141 0.0142 0.0143 
1926.969821 0.0144 0.0145 0.0146 0.0146 0.0147 0.0147 0.0147 0.0148 0.0148 
1935.649866 0.0148 0.0148 0.0148 0.0149 0.0149 0.0149 0.0148 0.0148 0.0149 
1944.329910 0.0149 0.0149 0.0149 0.0148 0.0148 0.0148 0.0147 0.0147 0.0147 
1953.009954 0.0146 0.0145 0.0145 0.0144 0.0143 0.0143 0.0142 0.0141 0.0140 
1961.689998 0.0139 0.0139 0.0138 0.0137 0.0136 0.0135 0.0134 0.0134 0.0134 
1970.370042 0.0133 0.0132 0.0132 0.0131 0.0130 0.0129 0.0128 0.0127 0.0126 
1979.050087 0.0125 0.0124 0.0123 0.0122 0.0122 0.0121 0.0120 0.0120 0.0119 
1987.730131 0.0119 0.0119 0.0119 0.0118 0.0117 0.0118 0.0118 0.0118 0.0118 
1996.410175 0.0118 0.0118 0.0118 0.0119 0.0119 0.0119 0.0119 0.0119 0.0120 
2005.090219 0.0120 0.0121 0.0121 0.0122 0.0122 0.0123 0.0124 0.0125 0.0126 
2013.770264 0.0127 0.0129 0.0130 0.0130 0.0132 0.0133 0.0135 0.0137 0.0137 
2022.450308 0.0139 0.0141 0.0141 0.0143 0.0144 0.0146 0.0148 0.0150 0.0152 
2031.130352 0.0153 0.0154 0.0156 0.0157 0.0157 0.0157 0.0157 0.0158 0.0157 
2039.810396 0.0157 0.0157 0.0158 0.0159 0.0158 0.0159 0.0159 0.0160 0.0159 
2048.490441 0.0161 0.0162 0.0162 0.0162 0.0163 0.0163 0.0163 0.0163 0.0163 
2057.170485 0.0163 0.0164 0.0164 0.0165 0.0165 0.0165 0.0165 0.0166 0.0166 
2065.850529 0.0167 0.0167 0.0167 0.0168 0.0168 0.0168 0.0169 0.0170 0.0171 
2074.530573 0.0172 0.0173 0.0173 0.0174 0.0174 0.0174 0.0174 0.0174 0.0173 
2083.210618 0.0173 0.0172 0.0171 0.0170 0.0170 0.0169 0.0169 0.0168 0.0167 
2091.890662 0.0166 0.0166 0.0165 0.0165 0.0164 0.0164 0.0163 0.0162 0.0161 
2100.570706 0.0160 0.0158 0.0157 0.0155 0.0153 0.0152 0.0151 0.0150 0.0148 
2109.250750 0.0147 0.0146 0.0146 0.0145 0.0144 0.0143 0.0143 0.0143 0.0143 
2117.930795 0.0142 0.0141 0.0141 0.0140 0.0139 0.0138 0.0138 0.0137 0.0136 
2126.610839 0.0136 0.0136 0.0136 0.0136 0.0136 0.0136 0.0135 0.0135 0.0135 
2135.290883 0.0134 0.0134 0.0134 0.0133 0.0133 0.0133 0.0132 0.0132 0.0132 
2143.970927 0.0132 0.0131 0.0131 0.0132 0.0132 0.0132 0.0132 0.0132 0.0132 
2152.650972 0.0133 0.0133 0.0134 0.0135 0.0136 0.0137 0.0137 0.0138 0.0139 
2161.331016 0.0140 0.0141 0.0141 0.0142 0.0143 0.0144 0.0144 0.0144 0.0145 
2170.011060 0.0145 0.0145 0.0144 0.0145 0.0145 0.0144 0.0144 0.0143 0.0142 
2178.691104 0.0142 0.0142 0.0142 0.0142 0.0141 0.0142 0.0142 0.0142 0.0142 
2187.371148 0.0142 0.0142 0.0143 0.0143 0.0142 0.0142 0.0143 0.0142 0.0142 
2196.051193 0.0142 0.0142 0.0142 0.0141 0.0141 0.0140 0.0139 0.0139 0.0138 
2204.731237 0.0138 0.0138 0.0138 0.0138 0.0137 0.0137 0.0137 0.0137 0.0137 
2213.411281 0.0137 0.0137 0.0137 0.0137 0.0136 0.0136 0.0136 0.0136 0.0135 
2222.091325 0.0135 0.0135 0.0135 0.0135 0.0135 0.0134 0.0134 0.0134 0.0134 
2230.771370 0.0134 0.0134 0.0135 0.0135 0.0134 0.0134 0.0134 0.0134 0.0134 
2239.451414 0.0135 0.0135 0.0135 0.0136 0.0136 0.0136 0.0137 0.0137 0.0137 
2248.131458 0.0138 0.0139 0.0139 0.0139 0.0139 0.0140 0.0140 0.0141 0.0141 
2256.811502 0.0142 0.0142 0.0142 0.0142 0.0142 0.0142 0.0143 0.0143 0.0143 
2265.491547 0.0143 0.0143 0.0143 0.0143 0.0143 0.0142 0.0143 0.0144 0.0143 
2274.171591 0.0142 0.0142 0.0142 0.0142 0.0142 0.0141 0.0140 0.0139 0.0139 
2282.851635 0.0139 0.0138 0.0138 0.0138 0.0137 0.0137 0.0137 0.0137 0.0137 
2291.531679 0.0138 0.0137 0.0137 0.0137 0.0137 0.0137 0.0137 0.0138 0.0139 
2300.211724 0.0139 0.0139 0.0138 0.0140 0.0138 0.0140 0.0139 0.0142 0.0142 
2308.891768 0.0143 0.0142 0.0143 0.0143 0.0143 0.0144 0.0145 0.0146 0.0145 
2317.571812 0.0147 0.0147 0.0149 0.0148 0.0150 0.0148 0.0150 0.0150 0.0151 
2326.251856 0.0150 0.0152 0.0152 0.0152 0.0152 0.0154 0.0153 0.0152 0.0151 
2334.931901 0.0152 0.0152 0.0152 0.0151 0.0151 0.0152 0.0152 0.0150 0.0150 
2343.611945 0.0150 0.0150 0.0150 0.0149 0.0147 0.0145 0.0143 0.0145 0.0147 
2352.291989 0.0148 0.0148 0.0150 0.0151 0.0151 0.0152 0.0154 0.0154 0.0155 
2360.972033 0.0155 0.0158 0.0159 0.0160 0.0159 0.0160 0.0159 0.0160 0.0159 
2369.652078 0.0159 0.0160 0.0160 0.0159 0.0160 0.0160 0.0160 0.0160 0.0160 
2378.332122 0.0160 0.0161 0.0161 0.0161 0.0161 0.0162 0.0161 0.0161 0.0162 
2387.012166 0.0162 0.0163 0.0164 0.0164 0.0165 0.0165 0.0166 0.0166 0.0167 
2395.692210 0.0167 0.0168 0.0169 0.0169 0.0170 0.0169 0.0169 0.0168 0.0168 
2404.372254 0.0168 0.0167 0.0167 0.0166 0.0166 0.0165 0.0165 0.0165 0.0165 
2413.052299 0.0165 0.0165 0.0165 0.0164 0.0164 0.0163 0.0162 0.0162 0.0162 
2421.732343 0.0162 0.0162 0.0161 0.0160 0.0160 0.0160 0.0160 0.0159 0.0159 
2430.412387 0.0158 0.0157 0.0158 0.0158 0.0158 0.0157 0.0157 0.0157 0.0156 
2439.092431 0.0156 0.0155 0.0155 0.0154 0.0154 0.0153 0.0153 0.0153 0.0152 
2447.772476 0.0152 0.0152 0.0151 0.0151 0.0150 0.0150 0.0151 0.0151 0.0150 
2456.452520 0.0150 0.0150 0.0150 0.0150 0.0150 0.0150 0.0149 0.0150 0.0150 
2465.132564 0.0150 0.0150 0.0150 0.0150 0.0150 0.0150 0.0150 0.0150 0.0150 
2473.812608 0.0150 0.0150 0.0151 0.0151 0.0152 0.0152 0.0153 0.0153 0.0153 
2482.492653 0.0153 0.0154 0.0155 0.0155 0.0155 0.0155 0.0155 0.0155 0.0156 
2491.172697 0.0157 0.0157 0.0157 0.0157 0.0157 0.0157 0.0157 0.0157 0.0157 
2499.852741 0.0158 0.0159 0.0159 0.0160 0.0159 0.0159 0.0160 0.0160 0.0161 
2508.532785 0.0161 0.0161 0.0161 0.0161 0.0161 0.0162 0.0163 0.0163 0.0164 
2517.212830 0.0164 0.0165 0.0164 0.0164 0.0164 0.0165 0.0165 0.0165 0.0165 
2525.892874 0.0165 0.0165 0.0165 0.0165 0.0166 0.0166 0.0167 0.0167 0.0167 
2534.572918 0.0167 0.0168 0.0168 0.0168 0.0169 0.0171 0.0171 0.0171 0.0171 
2543.252962 0.0171 0.0172 0.0172 0.0173 0.0174 0.0175 0.0177 0.0177 0.0178 
2551.933007 0.0179 0.0180 0.0181 0.0183 0.0184 0.0185 0.0185 0.0187 0.0188 
2560.613051 0.0189 0.0191 0.0192 0.0192 0.0194 0.0196 0.0198 0.0200 0.0202 
2569.293095 0.0205 0.0208 0.0211 0.0215 0.0218 0.0221 0.0225 0.0228 0.0233 
2577.973139 0.0237 0.0241 0.0245 0.0248 0.0251 0.0254 0.0256 0.0259 0.0260 
2586.653184 0.0262 0.0263 0.0264 0.0265 0.0265 0.0265 0.0265 0.0266 0.0265 
2595.333228 0.0264 0.0264 0.0263 0.0263 0.0262 0.0261 0.0260 0.0259 0.0259 
2604.013272 0.0259 0.0259 0.0258 0.0258 0.0258 0.0259 0.0260 0.0261 0.0261 
2612.693316 0.0262 0.0263 0.0263 0.0264 0.0265 0.0266 0.0267 0.0267 0.0268 
2621.373360 0.0269 0.0269 0.0270 0.0271 0.0270 0.0270 0.0271 0.0271 0.0271 
2630.053405 0.0271 0.0271 0.0270 0.0270 0.0271 0.0271 0.0271 0.0271 0.0272 
2638.733449 0.0272 0.0273 0.0273 0.0273 0.0273 0.0274 0.0275 0.0277 0.0278 
2647.413493 0.0280 0.0282 0.0284 0.0288 0.0291 0.0294 0.0297 0.0300 0.0303 
2656.093537 0.0306 0.0307 0.0309 0.0311 0.0312 0.0314 0.0314 0.0316 0.0317 
2664.773582 0.0319 0.0321 0.0322 0.0323 0.0325 0.0327 0.0329 0.0332 0.0335 
2673.453626 0.0339 0.0344 0.0350 0.0357 0.0363 0.0369 0.0376 0.0384 0.0391 
2682.133670 0.0397 0.0403 0.0409 0.0415 0.0421 0.0427 0.0434 0.0441 0.0449 
2690.813714 0.0456 0.0463 0.0470 0.0477 0.0484 0.0491 0.0498 0.0505 0.0512 
2699.493759 0.0519 0.0525 0.0530 0.0532 0.0534 0.0535 0.0536 0.0538 0.0542 
2708.173803 0.0547 0.0553 0.0559 0.0565 0.0571 0.0577 0.0581 0.0586 0.0590 
2716.853847 0.0593 0.0596 0.0599 0.0603 0.0608 0.0613 0.0620 0.0628 0.0639 
2725.533891 0.0649 0.0661 0.0672 0.0685 0.0697 0.0709 0.0718 0.0726 0.0729 
2734.213936 0.0730 0.0729 0.0725 0.0721 0.0715 0.0707 0.0700 0.0691 0.0682 
2742.893980 0.0673 0.0664 0.0656 0.0648 0.0641 0.0636 0.0632 0.0629 0.0625 
2751.574024 0.0622 0.0619 0.0617 0.0615 0.0614 0.0613 0.0613 0.0614 0.0616 
2760.254068 0.0619 0.0624 0.0629 0.0636 0.0643 0.0651 0.0661 0.0671 0.0682 
2768.934113 0.0694 0.0707 0.0721 0.0737 0.0753 0.0769 0.0788 0.0807 0.0829 
2777.614157 0.0854 0.0882 0.0913 0.0948 0.0987 0.1031 0.1078 0.1129 0.1185 
2786.294201 0.1245 0.1307 0.1372 0.1437 0.1503 0.1567 0.1627 0.1681 0.1728 
2794.974245 0.1763 0.1785 0.1792 0.1782 0.1755 0.1716 0.1667 0.1613 0.1556 
2803.654290 0.1500 0.1447 0.1398 0.1356 0.1323 0.1295 0.1276 0.1263 0.1256 
2812.334334 0.1253 0.1256 0.1263 0.1275 0.1289 0.1309 0.1333 0.1362 0.1396 
2821.014378 0.1437 0.1482 0.1535 0.1593 0.1658 0.1728 0.1804 0.1886 0.1972 
2829.694422 0.2062 0.2159 0.2262 0.2374 0.2497 0.2637 0.2791 0.2966 0.3158 
2838.374466 0.3376 0.3617 0.3883 0.4162 0.4459 0.4756 0.5053 0.5337 0.5616 
2847.054511 0.5887 0.6168 0.6456 0.6764 0.7073 0.7398 0.7716 0.8039 0.8336 
2855.734555 0.8628 0.8892 0.9165 0.9408 0.9665 0.9921 1.0191 1.0409 1.0611 
2864.414599 1.0742 1.0822 1.0806 1.0769 1.0674 1.0612 1.0575 1.0625 1.0706 
2873.094643 1.0798 1.0750 1.0490 0.9950 0.9257 0.8492 0.7772 0.7119 0.6563 
2881.774688 0.6086 0.5692 0.5358 0.5088 0.4866 0.4696 0.4562 0.4466 0.4398 
2890.454732 0.4360 0.4344 0.4356 0.4384 0.4431 0.4488 0.4560 0.4638 0.4731 
2899.134776 0.4828 0.4933 0.5036 0.5143 0.5243 0.5352 0.5464 0.5596 0.5739 
2907.814820 0.5899 0.6061 0.6231 0.6390 0.6543 0.6667 0.6776 0.6857 0.6930 
2916.494865 0.6994 0.7081 0.7184 0.7334 0.7522 0.7771 0.8068 0.8429 0.8830 
2925.174909 0.9290 0.9770 1.0281 1.0769 1.1269 1.1734 1.2210 1.2599 1.2914 
2933.854953 1.3063 1.3074 1.2864 1.2522 1.2033 1.1518 1.0969 1.0472 1.0006 
2942.534997 0.9608 0.9255 0.8994 0.8795 0.8679 0.8639 0.8707 0.8853 0.9108 
2951.215042 0.9453 0.9936 1.0549 1.1317 1.2153 1.3057 1.3901 1.4700 1.5275 
2959.895086 1.5648 1.5715 1.5578 1.5152 1.4602 1.3837 1.2958 1.1959 1.0958 
2968.575130 0.9948 0.9004 0.8104 0.7288 0.6545 0.5887 0.5300 0.4788 0.4337 
2977.255174 0.3945 0.3597 0.3296 0.3031 0.2799 0.2593 0.2411 0.2245 0.2096 
2985.935219 0.1961 0.1842 0.1733 0.1635 0.1546 0.1466 0.1393 0.1327 0.1268 
2994.615263 0.1213 0.1163 0.1117 0.1075 0.1035 0.0998 0.0965 0.0933 0.0903 
3003.295307 0.0876 0.0850 0.0826 0.0803 0.0781 0.0762 0.0744 0.0725 0.0706 
3011.975351 0.0690 0.0675 0.0660 0.0646 0.0633 0.0619 0.0606 0.0594 0.0582 
3020.655396 0.0571 0.0561 0.0550 0.0540 0.0530 0.0521 0.0512 0.0503 0.0495 
3029.335440 0.0487 0.0479 0.0471 0.0464 0.0457 0.0450 0.0443 0.0436 0.0430 
3038.015484 0.0424 0.0419 0.0412 0.0407 0.0401 0.0396 0.0391 0.0385 0.0380 
3046.695528 0.0376 0.0370 0.0366 0.0362 0.0358 0.0353 0.0349 0.0346 0.0343 
3055.375572 0.0339 0.0336 0.0331 0.0328 0.0326 0.0323 0.0319 0.0316 0.0313 
3064.055617 0.0310 0.0308 0.0306 0.0304 0.0301 0.0299 0.0297 0.0294 0.0292 
3072.735661 0.0292 0.0290 0.0288 0.0286 0.0284 0.0283 0.0282 0.0280 0.0279 
3081.415705 0.0277 0.0275 0.0275 0.0273 0.0272 0.0271 0.0270 0.0269 0.0269 
3090.095749 0.0268 0.0267 0.0266 0.0265 0.0264 0.0264 0.0263 0.0261 0.0260 
3098.775794 0.0260 0.0260 0.0259 0.0258 0.0257 0.0257 0.0256 0.0257 0.0257 
3107.455838 0.0257 0.0256 0.0255 0.0255 0.0254 0.0253 0.0254 0.0254 0.0254 
3116.135882 0.0253 0.0253 0.0253 0.0252 0.0252 0.0253 0.0253 0.0253 0.0253 
3124.815926 0.0253 0.0253 0.0252 0.0253 0.0254 0.0254 0.0254 0.0254 0.0254 
3133.495971 0.0253 0.0253 0.0254 0.0255 0.0256 0.0256 0.0256 0.0256 0.0256 
3142.176015 0.0257 0.0257 0.0257 0.0257 0.0258 0.0258 0.0259 0.0259 0.0260 
3150.856059 0.0260 0.0261 0.0262 0.0262 0.0263 0.0264 0.0264 0.0264 0.0265 
3159.536103 0.0265 0.0266 0.0267 0.0269 0.0271 0.0272 0.0273 0.0274 0.0274 
3168.216148 0.0276 0.0277 0.0279 0.0281 0.0282 0.0283 0.0284 0.0286 0.0287 
3176.896192 0.0287 0.0288 0.0291 0.0293 0.0295 0.0296 0.0298 0.0299 0.0301 
3185.576236 0.0302 0.0303 0.0305 0.0306 0.0307 0.0308 0.0310 0.0311 0.0311 
3194.256280 0.0313 0.0315 0.0316 0.0316 0.0316 0.0317 0.0318 0.0319 0.0320 
3202.936325 0.0321 0.0321 0.0322 0.0323 0.0324 0.0324 0.0324 0.0325 0.0325 
3211.616369 0.0324 0.0325 0.0326 0.0327 0.0327 0.0327 0.0328 0.0328 0.0328 
3220.296413 0.0329 0.0330 0.0329 0.0330 0.0332 0.0333 0.0333 0.0333 0.0334 
3228.976457 0.0335 0.0337 0.0337 0.0339 0.0340 0.0341 0.0341 0.0342 0.0343 
3237.656502 0.0344 0.0345 0.0347 0.0349 0.0351 0.0352 0.0353 0.0355 0.0357 
3246.336546 0.0359 0.0361 0.0362 0.0363 0.0364 0.0366 0.0368 0.0369 0.0371 
3255.016590 0.0374 0.0375 0.0377 0.0379 0.0381 0.0382 0.0384 0.0387 0.0389 
3263.696634 0.0391 0.0394 0.0396 0.0398 0.0400 0.0403 0.0407 0.0410 0.0411 
3272.376678 0.0413 0.0415 0.0417 0.0419 0.0421 0.0422 0.0426 0.0429 0.0431 
3281.056723 0.0433 0.0436 0.0439 0.0443 0.0446 0.0448 0.0451 0.0454 0.0456 
3289.736767 0.0458 0.0461 0.0464 0.0467 0.0469 0.0472 0.0475 0.0477 0.0479 
3298.416811 0.0481 0.0485 0.0487 0.0491 0.0494 0.0497 0.0501 0.0504 0.0507 
3307.096855 0.0509 0.0512 0.0515 0.0518 0.0521 0.0524 0.0526 0.0528 0.0532 
3315.776900 0.0535 0.0538 0.0541 0.0543 0.0546 0.0549 0.0552 0.0555 0.0557 
3324.456944 0.0560 0.0562 0.0564 0.0567 0.0570 0.0572 0.0575 0.0577 0.0579 
3333.136988 0.0581 0.0583 0.0586 0.0590 0.0592 0.0593 0.0596 0.0597 0.0599 
3341.817032 0.0601 0.0604 0.0606 0.0608 0.0610 0.0611 0.0614 0.0617 0.0619 
3350.497077 0.0620 0.0622 0.0624 0.0626 0.0629 0.0631 0.0632 0.0634 0.0637 
3359.177121 0.0640 0.0641 0.0642 0.0644 0.0647 0.0649 0.0652 0.0653 0.0655 
3367.857165 0.0657 0.0659 0.0661 0.0661 0.0663 0.0665 0.0667 0.0669 0.0670 
3376.537209 0.0672 0.0673 0.0676 0.0678 0.0679 0.0681 0.0683 0.0685 0.0687 
3385.217254 0.0688 0.0690 0.0692 0.0694 0.0695 0.0697 0.0698 0.0700 0.0701 
3393.897298 0.0702 0.0705 0.0708 0.0709 0.0711 0.0713 0.0716 0.0716 0.0718 
3402.577342 0.0720 0.0721 0.0722 0.0725 0.0726 0.0728 0.0730 0.0731 0.0733 
3411.257386 0.0736 0.0737 0.0738 0.0739 0.0741 0.0743 0.0745 0.0748 0.0750 
3419.937431 0.0750 0.0752 0.0753 0.0755 0.0756 0.0758 0.0760 0.0761 0.0762 
3428.617475 0.0763 0.0765 0.0768 0.0769 0.0770 0.0773 0.0776 0.0778 0.0779 
3437.297519 0.0781 0.0782 0.0783 0.0785 0.0787 0.0790 0.0792 0.0794 0.0796 
3445.977563 0.0799 0.0801 0.0802 0.0804 0.0807 0.0809 0.0811 0.0814 0.0816 
3454.657608 0.0817 0.0819 0.0820 0.0823 0.0825 0.0825 0.0827 0.0831 0.0834 
3463.337652 0.0835 0.0836 0.0838 0.0840 0.0841 0.0841 0.0843 0.0843 0.0844 
3472.017696 0.0845 0.0845 0.0845 0.0845 0.0846 0.0847 0.0847 0.0847 0.0845 
3480.697740 0.0844 0.0844 0.0843 0.0841 0.0840 0.0838 0.0836 0.0835 0.0832 
3489.377784 0.0828 0.0826 0.0823 0.0818 0.0814 0.0811 0.0808 0.0802 0.0795 
3498.057829 0.0790 0.0785 0.0781 0.0776 0.0769 0.0762 0.0754 0.0747 0.0741 
3506.737873 0.0735 0.0729 0.0722 0.0714 0.0705 0.0698 0.0690 0.0681 0.0672 
3515.417917 0.0664 0.0656 0.0647 0.0638 0.0629 0.0620 0.0612 0.0604 0.0596 
3524.097961 0.0585 0.0577 0.0569 0.0562 0.0552 0.0542 0.0532 0.0525 0.0518 
3532.778006 0.0511 0.0503 0.0495 0.0486 0.0478 0.0469 0.0463 0.0456 0.0449 
3541.458050 0.0442 0.0436 0.0429 0.0424 0.0417 0.0408 0.0402 0.0393 0.0387 
3550.138094 0.0384 0.0380 0.0374 0.0366 0.0360 0.0355 0.0351 0.0346 0.0340 
3558.818138 0.0335 0.0333 0.0327 0.0321 0.0317 0.0313 0.0309 0.0308 0.0301 
3567.498183 0.0291 0.0289 0.0285 0.0285 0.0282 0.0278 0.0276 0.0272 0.0268 
3576.178227 0.0265 0.0264 0.0259 0.0257 0.0255 0.0251 0.0248 0.0246 0.0245 
3584.858271 0.0244 0.0241 0.0236 0.0228 0.0229 0.0225 0.0227 0.0227 0.0226 
3593.538315 0.0224 0.0220 0.0218 0.0215 0.0215 0.0217 0.0214 0.0213 0.0211 
3602.218360 0.0210 0.0212 0.0213 0.0214 0.0213 0.0213 0.0209 0.0213 0.0214 
3610.898404 0.0213 0.0216 0.0219 0.0219 0.0224 0.0228 0.0232 0.0240 0.0243 
3619.578448 0.0251 0.0258 0.0265 0.0275 0.0283 0.0290 0.0296 0.0303 0.0307 
3628.258492 0.0312 0.0311 0.0314 0.0321 0.0327 0.0330 0.0335 0.0338 0.0342 
3636.938537 0.0345 0.0347 0.0347 0.0345 0.0341 0.0336 0.0327 0.0316 0.0307 
3645.618581 0.0296 0.0285 0.0266 0.0249 0.0243 0.0227 0.0217 0.0211 0.0213 
3654.298625 0.0210 0.0205 0.0203 0.0193 0.0190 0.0193 0.0191 0.0189 0.0188 
3662.978669 0.0188 0.0188 0.0188 0.0188 0.0188 0.0188 0.0189 0.0183 0.0188 
3671.658714 0.0192 0.0196 0.0198 0.0199 0.0201 0.0205 0.0210 0.0216 0.0222 
3680.338758 0.0225 0.0228 0.0233 0.0235 0.0235 0.0234 0.0234 0.0230 0.0229 
3689.018802 0.0218 0.0207 0.0209 0.0198 0.0193 0.0193 0.0187 0.0183 0.0179 
3697.698846 0.0175 0.0171 0.0168 0.0164 0.0166 0.0160 0.0155 0.0155 0.0154 
3706.378890 0.0153 0.0152 0.0149 0.0149 0.0146 0.0143 0.0151 0.0144 0.0142 
3715.058935 0.0145 0.0145 0.0143 0.0141 0.0143 0.0143 0.0139 0.0140 0.0141 
3723.738979 0.0137 0.0139 0.0139 0.0140 0.0140 0.0139 0.0140 0.0138 0.0138 
3732.419023 0.0142 0.0132 0.0135 0.0138 0.0134 0.0137 0.0139 0.0138 0.0136 
3741.099067 0.0141 0.0137 0.0131 0.0133 0.0142 0.0134 0.0135 0.0134 0.0133 
3749.779112 0.0136 0.0125 0.0126 0.0133 0.0134 0.0138 0.0137 0.0140 0.0140 
3758.459156 0.0137 0.0141 0.0140 0.0139 0.0142 0.0144 0.0141 0.0141 0.0144 
3767.139200 0.0142 0.0141 0.0141 0.0145 0.0143 0.0144 0.0144 0.0145 0.0144 
3775.819244 0.0144 0.0144 0.0143 0.0141 0.0144 0.0142 0.0143 0.0145 0.0143 
3784.499289 0.0143 0.0142 0.0143 0.0144 0.0144 0.0146 0.0146 0.0146 0.0146 
3793.179333 0.0146 0.0145 0.0143 0.0145 0.0146 0.0144 0.0145 0.0141 0.0143 
3801.859377 0.0145 0.0143 0.0147 0.0148 0.0145 0.0148 0.0153 0.0149 0.0151 
3810.539421 0.0152 0.0152 0.0153 0.0152 0.0148 0.0146 0.0153 0.0150 0.0151 
3819.219466 0.0151 0.0146 0.0144 0.0148 0.0152 0.0156 0.0156 0.0155 0.0158 
3827.899510 0.0158 0.0158 0.0155 0.0153 0.0159 0.0156 0.0154 0.0158 0.0159 
3836.579554 0.0149 0.0153 0.0154 0.0147 0.0151 0.0156 0.0152 0.0157 0.0161 
3845.259598 0.0157 0.0158 0.0158 0.0157 0.0157 0.0154 0.0149 0.0150 0.0136 
3853.939643 0.0141 0.0153 0.0146 0.0152 0.0158 0.0156 0.0155 0.0154 0.0157 
3862.619687 0.0153 0.0147 0.0149 0.0153 0.0151 0.0150 0.0146 0.0145 0.0151 
3871.299731 0.0150 0.0148 0.0146 0.0153 0.0151 0.0150 0.0153 0.0152 0.0147 
3879.979775 0.0148 0.0152 0.0148 0.0151 0.0152 0.0145 0.0149 0.0150 0.0149 
3888.659820 0.0150 0.0148 0.0147 0.0151 0.0148 0.0149 0.0152 0.0152 0.0151 
3897.339864 0.0148 0.0146 0.0151 0.0148 0.0146 0.0151 0.0143 0.0149 0.0148 
3906.019908 0.0149 0.0151 0.0152 0.0152 0.0153 0.0153 0.0153 0.0152 0.0152 
3914.699952 0.0152 0.0150 0.0151 0.0153 0.0149 0.0149 0.0153 0.0152 0.0151 
3923.379996 0.0150 0.0150 0.0152 0.0151 0.0151 0.0151 0.0150 0.0150 0.0149 
3932.060041 0.0152 0.0154 0.0153 0.0154 0.0154 0.0153 0.0154 0.0155 0.0154 
3940.740085 0.0154 0.0154 0.0157 0.0158 0.0159 0.0159 0.0159 0.0162 0.0161 
3949.420129 0.0160 0.0165 0.0164 0.0165 0.0166 0.0166 0.0168 0.0170 0.0171 
3958.100173 0.0170 0.0171 0.0172 0.0173 0.0175 0.0175 0.0174 0.0175 0.0176 
3966.780218 0.0178 0.0178 0.0179 0.0181 0.0181 0.0182 0.0182 0.0184 0.0186 
3975.460262 0.0188 0.0190 0.0189 0.0188 0.0190 0.0192 0.0193 0.0194 0.0195 
3984.140306 0.0197 0.0198 0.0197 0.0197 0.0197 0.0198 0.0199 0.0198 0.0195 
3992.820350 0.0196 0.0198 0.0197 0.0196 0.0197 0.0197 0.0196 0.0195 0.0195 
##END=
