##JCAMP-DX=5.01
##FILENAME=KAM-15.jdx
##XUNITS=1/CM
##YUNITS=ABSORBANCE
##FIRSTX=399.282035
##LASTX=4000.535945
##MAXX=4000.535945
##MINX=399.282035
##FIRSTY=0.0010
##LASTY=0.0082
##MAXY=0.8667
##MINY=0.0000
##NPOINTS=3735
##XFACTOR=1
##YFACTOR=1
##XYDATA=(X++(Y..Y))
399.282035 0.0010 0.0010 0.0010 0.0010 0.0020 0.0102 0.0121 0.0065 0.0039 0.0004 
408.926529 0.0010 0.0031 0.0040 0.0010 0.0010 0.0010 0.0010 0.0010 0.0010 0.0010 
418.571022 0.0010 0.0010 0.0010 0.0002 0.0010 0.0010 0.0010 0.0010 0.0015 0.0042 
428.215516 0.0045 0.0018 0.0010 0.0010 0.0010 0.0027 0.0053 0.0038 0.0002 0.0022 
437.860009 0.0045 0.0014 0.0000 0.0010 0.0012 0.0010 0.0010 0.0013 0.0017 0.0010 
447.504503 0.0010 0.0017 0.0030 0.0033 0.0023 0.0017 0.0021 0.0033 0.0041 0.0048 
457.148997 0.0026 0.0019 0.0038 0.0023 0.0013 0.0036 0.0039 0.0016 0.0020 0.0026 
466.793490 0.0024 0.0008 0.0007 0.0021 0.0021 0.0007 0.0018 0.0037 0.0027 0.0027 
476.437984 0.0029 0.0032 0.0042 0.0048 0.0055 0.0056 0.0050 0.0049 0.0058 0.0059 
486.082477 0.0045 0.0048 0.0061 0.0064 0.0063 0.0056 0.0045 0.0047 0.0052 0.0048 
495.726971 0.0044 0.0044 0.0034 0.0034 0.0049 0.0048 0.0032 0.0039 0.0049 0.0041 
505.371465 0.0046 0.0048 0.0046 0.0052 0.0052 0.0043 0.0042 0.0050 0.0052 0.0047 
515.015958 0.0047 0.0048 0.0039 0.0043 0.0042 0.0047 0.0064 0.0067 0.0070 0.0071 
524.660452 0.0073 0.0072 0.0065 0.0068 0.0071 0.0067 0.0051 0.0010 0.0000 0.0042 
534.304945 0.0032 0.0046 0.0068 0.0068 0.0069 0.0076 0.0080 0.0091 0.0094 0.0094 
543.949439 0.0093 0.0101 0.0110 0.0115 0.0121 0.0138 0.0153 0.0166 0.0186 0.0210 
553.593933 0.0237 0.0272 0.0314 0.0365 0.0423 0.0497 0.0584 0.0687 0.0791 0.0889 
563.238426 0.0969 0.1017 0.1027 0.0996 0.0932 0.0854 0.0776 0.0697 0.0625 0.0553 
572.882920 0.0485 0.0424 0.0372 0.0316 0.0270 0.0238 0.0209 0.0186 0.0158 0.0146 
582.527413 0.0140 0.0127 0.0112 0.0104 0.0099 0.0096 0.0096 0.0095 0.0089 0.0078 
592.171907 0.0074 0.0078 0.0078 0.0076 0.0075 0.0074 0.0072 0.0071 0.0065 0.0068 
601.816401 0.0071 0.0070 0.0072 0.0072 0.0071 0.0071 0.0072 0.0069 0.0069 0.0074 
611.460894 0.0076 0.0076 0.0078 0.0081 0.0082 0.0085 0.0087 0.0086 0.0086 0.0084 
621.105388 0.0084 0.0085 0.0086 0.0089 0.0089 0.0096 0.0107 0.0113 0.0121 0.0133 
630.749881 0.0149 0.0167 0.0204 0.0245 0.0275 0.0311 0.0357 0.0389 0.0448 0.0527 
640.394375 0.0605 0.0669 0.0739 0.0820 0.0894 0.0951 0.0986 0.0995 0.0979 0.0934 
650.038869 0.0010 0.0010 0.0010 0.0010 0.0010 0.0010 0.0010 0.0010 0.0010 0.0010 
659.683362 0.0010 0.0010 0.0010 0.0010 0.0010 0.0010 0.0010 0.0010 0.0010 0.0010 
669.327856 0.0010 0.0010 0.0010 0.0010 0.0010 0.0010 0.0010 0.0010 0.0010 0.0010 
678.972349 0.0010 0.0010 0.0010 0.0010 0.0010 0.0010 0.0010 0.0010 0.0010 0.0010 
688.616843 0.0010 0.0010 0.0010 0.0010 0.0010 0.0010 0.0010 0.0010 0.0010 0.0010 
698.261337 0.0010 0.0010 0.0010 0.0010 0.0010 0.0010 0.0010 0.0010 0.0010 0.0010 
707.905830 0.0010 0.0010 0.0010 0.0010 0.0010 0.0010 0.0010 0.0010 0.0010 0.0010 
717.550324 0.0010 0.0010 0.0010 0.0010 0.0010 0.0010 0.0010 0.0010 0.0010 0.0010 
727.194817 0.0010 0.0010 0.0010 0.0010 0.0010 0.0010 0.0010 0.0010 0.0010 0.0010 
736.839311 0.0010 0.0010 0.0010 0.0010 0.0010 0.0010 0.0010 0.0010 0.0010 0.0010 
746.483805 0.0010 0.0010 0.0010 0.0010 0.0010 0.0010 0.0010 0.0010 0.0010 0.0010 
756.128298 0.0010 0.0010 0.0010 0.0010 0.0010 0.0010 0.0010 0.0010 0.0010 0.0010 
765.772792 0.0010 0.0010 0.0010 0.0010 0.0010 0.0010 0.0010 0.0010 0.0010 0.0010 
775.417285 0.0010 0.0010 0.0010 0.0010 0.0010 0.0010 0.0010 0.0010 0.0010 0.0010 
785.061779 0.0010 0.0010 0.0010 0.0010 0.0010 0.0010 0.0010 0.0010 0.0010 0.0010 
794.706273 0.0010 0.0010 0.0010 0.0010 0.0010 0.0010 0.0010 0.0010 0.0010 0.0010 
804.350766 0.0010 0.0010 0.0010 0.0010 0.0010 0.0010 0.0010 0.0010 0.0010 0.0010 
813.995260 0.0010 0.0010 0.0010 0.0010 0.0010 0.0010 0.0010 0.0010 0.0010 0.0010 
823.639753 0.0010 0.0010 0.0010 0.0010 0.0010 0.0010 0.0010 0.0010 0.0010 0.0010 
833.284247 0.0010 0.0010 0.0010 0.0010 0.0010 0.0010 0.0010 0.0010 0.0010 0.0010 
842.928741 0.0010 0.0010 0.0010 0.0010 0.0010 0.0010 0.0010 0.0010 0.0010 0.0010 
852.573234 0.0010 0.0010 0.0010 0.0010 0.0010 0.0010 0.0010 0.0010 0.0106 0.0104 
862.217728 0.0105 0.0108 0.0111 0.0118 0.0125 0.0130 0.0132 0.0134 0.0134 0.0134 
871.862221 0.0133 0.0133 0.0133 0.0132 0.0132 0.0133 0.0133 0.0132 0.0131 0.0130 
881.506715 0.0131 0.0134 0.0140 0.0149 0.0158 0.0166 0.0172 0.0178 0.0183 0.0185 
891.151209 0.0183 0.0177 0.0171 0.0165 0.0158 0.0148 0.0141 0.0135 0.0127 0.0122 
900.795702 0.0116 0.0111 0.0106 0.0104 0.0105 0.0105 0.0105 0.0107 0.0108 0.0111 
910.440196 0.0114 0.0116 0.0119 0.0121 0.0122 0.0120 0.0120 0.0122 0.0120 0.0117 
920.084689 0.0111 0.0106 0.0103 0.0100 0.0096 0.0093 0.0089 0.0086 0.0085 0.0083 
929.729183 0.0079 0.0076 0.0073 0.0070 0.0068 0.0068 0.0071 0.0075 0.0077 0.0079 
939.373677 0.0081 0.0086 0.0092 0.0099 0.0107 0.0117 0.0130 0.0145 0.0162 0.0182 
949.018170 0.0203 0.0221 0.0232 0.0237 0.0238 0.0238 0.0237 0.0234 0.0226 0.0215 
958.662664 0.0201 0.0187 0.0177 0.0169 0.0164 0.0162 0.0156 0.0148 0.0140 0.0129 
968.307157 0.0119 0.0113 0.0109 0.0106 0.0105 0.0104 0.0102 0.0101 0.0099 0.0096 
977.951651 0.0095 0.0094 0.0094 0.0098 0.0103 0.0109 0.0116 0.0123 0.0130 0.0137 
987.596145 0.0141 0.0143 0.0140 0.0134 0.0127 0.0120 0.0112 0.0105 0.0101 0.0098 
997.240638 0.0092 0.0085 0.0078 0.0071 0.0065 0.0061 0.0059 0.0059 0.0057 0.0056 
1006.885132 0.0054 0.0052 0.0051 0.0051 0.0051 0.0051 0.0050 0.0050 0.0049 
1015.565176 0.0050 0.0050 0.0053 0.0056 0.0062 0.0068 0.0075 0.0081 0.0086 
1024.245220 0.0090 0.0093 0.0096 0.0100 0.0106 0.0114 0.0123 0.0133 0.0140 
1032.925265 0.0145 0.0149 0.0152 0.0155 0.0156 0.0158 0.0161 0.0165 0.0172 
1041.605309 0.0180 0.0190 0.0200 0.0209 0.0216 0.0221 0.0224 0.0226 0.0224 
1050.285353 0.0219 0.0211 0.0199 0.0185 0.0173 0.0160 0.0150 0.0142 0.0135 
1058.965397 0.0131 0.0128 0.0127 0.0128 0.0129 0.0131 0.0133 0.0135 0.0135 
1067.645442 0.0135 0.0131 0.0128 0.0124 0.0122 0.0121 0.0120 0.0120 0.0122 
1076.325486 0.0124 0.0126 0.0128 0.0131 0.0135 0.0140 0.0145 0.0152 0.0157 
1085.005530 0.0160 0.0158 0.0153 0.0144 0.0135 0.0126 0.0120 0.0114 0.0109 
1093.685574 0.0106 0.0104 0.0103 0.0103 0.0104 0.0106 0.0109 0.0113 0.0118 
1102.365618 0.0123 0.0128 0.0131 0.0133 0.0134 0.0133 0.0130 0.0125 0.0123 
1111.045663 0.0121 0.0120 0.0121 0.0123 0.0122 0.0119 0.0112 0.0103 0.0096 
1119.725707 0.0091 0.0089 0.0086 0.0083 0.0081 0.0080 0.0080 0.0078 0.0078 
1128.405751 0.0077 0.0077 0.0076 0.0076 0.0076 0.0076 0.0076 0.0076 0.0077 
1137.085795 0.0077 0.0077 0.0079 0.0080 0.0081 0.0082 0.0084 0.0086 0.0088 
1145.765840 0.0090 0.0093 0.0096 0.0098 0.0102 0.0107 0.0111 0.0117 0.0123 
1154.445884 0.0130 0.0135 0.0141 0.0147 0.0150 0.0152 0.0152 0.0150 0.0146 
1163.125928 0.0142 0.0140 0.0138 0.0140 0.0141 0.0144 0.0148 0.0153 0.0156 
1171.805972 0.0159 0.0161 0.0163 0.0164 0.0165 0.0163 0.0162 0.0159 0.0157 
1180.486017 0.0158 0.0162 0.0168 0.0176 0.0184 0.0194 0.0201 0.0207 0.0212 
1189.166061 0.0216 0.0221 0.0230 0.0242 0.0257 0.0276 0.0299 0.0327 0.0365 
1197.846105 0.0414 0.0481 0.0571 0.0695 0.0846 0.0969 0.0993 0.0921 0.0821 
1206.526149 0.0730 0.0645 0.0562 0.0485 0.0418 0.0359 0.0310 0.0275 0.0250 
1215.206194 0.0232 0.0220 0.0212 0.0210 0.0213 0.0219 0.0228 0.0243 0.0263 
1223.886238 0.0289 0.0324 0.0373 0.0439 0.0523 0.0623 0.0723 0.0800 0.0833 
1232.566282 0.0830 0.0825 0.0853 0.0928 0.1051 0.1203 0.1358 0.1502 0.1640 
1241.246326 0.1742 0.1728 0.1573 0.1354 0.1172 0.1061 0.1017 0.1028 0.1073 
1249.926371 0.1132 0.1194 0.1264 0.1338 0.1402 0.1433 0.1401 0.1308 0.1184 
1258.606415 0.1058 0.0939 0.0827 0.0732 0.0657 0.0594 0.0546 0.0511 0.0488 
1267.286459 0.0479 0.0483 0.0499 0.0530 0.0575 0.0635 0.0708 0.0792 0.0883 
1275.966503 0.0971 0.1033 0.1057 0.1046 0.1015 0.0985 0.0969 0.0958 0.0941 
1284.646548 0.0905 0.0853 0.0790 0.0726 0.0669 0.0624 0.0587 0.0563 0.0549 
1293.326592 0.0543 0.0541 0.0541 0.0540 0.0538 0.0535 0.0529 0.0528 0.0535 
1302.006636 0.0547 0.0557 0.0557 0.0549 0.0532 0.0514 0.0497 0.0484 0.0473 
1310.686680 0.0454 0.0426 0.0392 0.0364 0.0344 0.0330 0.0314 0.0299 0.0284 
1319.366724 0.0265 0.0247 0.0230 0.0217 0.0204 0.0197 0.0195 0.0190 0.0190 
1328.046769 0.0191 0.0194 0.0200 0.0206 0.0214 0.0227 0.0245 0.0265 0.0286 
1336.726813 0.0308 0.0328 0.0330 0.0328 0.0335 0.0344 0.0339 0.0325 0.0303 
1345.406857 0.0281 0.0264 0.0255 0.0251 0.0252 0.0256 0.0261 0.0265 0.0266 
1354.086901 0.0259 0.0252 0.0250 0.0248 0.0247 0.0252 0.0254 0.0251 0.0247 
1362.766946 0.0244 0.0251 0.0260 0.0264 0.0270 0.0279 0.0293 0.0312 0.0328 
1371.446990 0.0341 0.0351 0.0366 0.0405 0.0474 0.0566 0.0681 0.0824 0.0926 
1380.127034 0.0923 0.0821 0.0671 0.0538 0.0440 0.0392 0.0341 0.0302 0.0279 
1388.807078 0.0265 0.0254 0.0241 0.0230 0.0223 0.0216 0.0208 0.0204 0.0200 
1397.487123 0.0192 0.0191 0.0199 0.0199 0.0197 0.0197 0.0197 0.0194 0.0193 
1406.167167 0.0194 0.0195 0.0194 0.0193 0.0192 0.0192 0.0194 0.0200 0.0204 
1414.847211 0.0218 0.0227 0.0231 0.0240 0.0256 0.0287 0.0300 0.0311 0.0330 
1423.527255 0.0354 0.0407 0.0462 0.0514 0.0616 0.0747 0.0890 0.1036 0.1067 
1432.207300 0.1013 0.0947 0.0922 0.0940 0.0993 0.1208 0.1320 0.1323 0.1259 
1440.887344 0.1166 0.1086 0.1024 0.0984 0.0988 0.0964 0.0974 0.1001 0.1063 
1449.567388 0.1134 0.1234 0.1349 0.1484 0.1587 0.1661 0.1729 0.1821 0.1928 
1458.247432 0.1963 0.1959 0.1969 0.1951 0.1908 0.1853 0.1863 0.1998 0.2184 
1466.927477 0.2270 0.2255 0.2022 0.1691 0.1366 0.1094 0.0816 0.0665 0.0564 
1475.607521 0.0516 0.0452 0.0410 0.0378 0.0338 0.0315 0.0291 0.0273 0.0257 
1484.287565 0.0243 0.0232 0.0222 0.0221 0.0211 0.0195 0.0191 0.0193 0.0183 
1492.967609 0.0178 0.0174 0.0172 0.0171 0.0169 0.0159 0.0160 0.0149 0.0010 
1501.647654 0.0010 0.0010 0.0010 0.0010 0.0010 0.0010 0.0010 0.0010 0.0010 
1510.327698 0.0010 0.0010 0.0010 0.0010 0.0010 0.0010 0.0010 0.0010 0.0010 
1519.007742 0.0010 0.0010 0.0010 0.0010 0.0010 0.0010 0.0010 0.0010 0.0010 
1527.687786 0.0010 0.0010 0.0010 0.0010 0.0010 0.0010 0.0010 0.0010 0.0010 
1536.367830 0.0010 0.0010 0.0010 0.0010 0.0010 0.0010 0.0010 0.0010 0.0010 
1545.047875 0.0010 0.0010 0.0010 0.0010 0.0010 0.0010 0.0010 0.0010 0.0010 
1553.727919 0.0010 0.0010 0.0010 0.0010 0.0010 0.0010 0.0010 0.0010 0.0010 
1562.407963 0.0010 0.0010 0.0010 0.0010 0.0010 0.0010 0.0010 0.0010 0.0010 
1571.088007 0.0010 0.0010 0.0010 0.0010 0.0010 0.0010 0.0010 0.0010 0.0010 
1579.768052 0.0010 0.0010 0.0010 0.0010 0.0010 0.0010 0.0010 0.0010 0.0010 
1588.448096 0.0010 0.0010 0.0010 0.0010 0.0010 0.0010 0.0010 0.0010 0.0010 
1597.128140 0.0010 0.0010 0.0010 0.0010 0.0010 0.0010 0.0010 0.0010 0.0010 
1605.808184 0.0010 0.0010 0.0010 0.0010 0.0010 0.0010 0.0010 0.0010 0.0010 
1614.488229 0.0010 0.0010 0.0010 0.0010 0.0010 0.0010 0.0010 0.0010 0.0010 
1623.168273 0.0010 0.0010 0.0010 0.0010 0.0010 0.0010 0.0010 0.0010 0.0010 
1631.848317 0.0010 0.0010 0.0010 0.0010 0.0010 0.0010 0.0010 0.0010 0.0010 
1640.528361 0.0010 0.0010 0.0010 0.0010 0.0010 0.0010 0.0010 0.0010 0.0010 
1649.208406 0.0010 0.0056 0.0063 0.0081 0.0116 0.0094 0.0071 0.0060 0.0055 
1657.888450 0.0055 0.0057 0.0057 0.0057 0.0061 0.0070 0.0067 0.0060 0.0058 
1666.568494 0.0058 0.0058 0.0064 0.0078 0.0074 0.0070 0.0065 0.0064 0.0067 
1675.248538 0.0073 0.0068 0.0063 0.0061 0.0059 0.0052 0.0055 0.0063 0.0071 
1683.928583 0.0088 0.0099 0.0081 0.0068 0.0059 0.0059 0.0066 0.0067 0.0067 
1692.608627 0.0065 0.0066 0.0071 0.0084 0.0086 0.0076 0.0073 0.0078 0.0093 
1701.288671 0.0085 0.0070 0.0064 0.0068 0.0073 0.0076 0.0073 0.0067 0.0064 
1709.968715 0.0062 0.0064 0.0064 0.0062 0.0062 0.0064 0.0065 0.0070 0.0083 
1718.648760 0.0084 0.0072 0.0065 0.0061 0.0060 0.0060 0.0062 0.0062 0.0062 
1727.328804 0.0062 0.0062 0.0058 0.0054 0.0057 0.0058 0.0061 0.0073 0.0075 
1736.008848 0.0066 0.0059 0.0058 0.0063 0.0073 0.0067 0.0059 0.0054 0.0050 
1744.688892 0.0051 0.0053 0.0054 0.0054 0.0055 0.0053 0.0050 0.0050 0.0054 
1753.368936 0.0055 0.0055 0.0055 0.0056 0.0055 0.0053 0.0053 0.0056 0.0057 
1762.048981 0.0059 0.0059 0.0056 0.0054 0.0053 0.0051 0.0047 0.0051 0.0056 
1770.729025 0.0061 0.0072 0.0079 0.0068 0.0058 0.0054 0.0056 0.0056 0.0053 
1779.409069 0.0053 0.0056 0.0055 0.0055 0.0055 0.0053 0.0050 0.0054 0.0055 
1788.089113 0.0055 0.0054 0.0052 0.0052 0.0061 0.0068 0.0063 0.0056 0.0050 
1796.769158 0.0051 0.0056 0.0059 0.0062 0.0056 0.0049 0.0049 0.0055 0.0058 
1805.449202 0.0059 0.0057 0.0054 0.0054 0.0057 0.0060 0.0059 0.0055 0.0056 
1814.129246 0.0059 0.0059 0.0057 0.0054 0.0053 0.0057 0.0058 0.0057 0.0056 
1822.809290 0.0055 0.0057 0.0057 0.0057 0.0059 0.0060 0.0061 0.0064 0.0064 
1831.489335 0.0061 0.0057 0.0055 0.0057 0.0058 0.0057 0.0055 0.0056 0.0057 
1840.169379 0.0057 0.0055 0.0052 0.0053 0.0058 0.0057 0.0054 0.0052 0.0049 
1848.849423 0.0052 0.0055 0.0056 0.0056 0.0056 0.0056 0.0055 0.0055 0.0055 
1857.529467 0.0053 0.0051 0.0052 0.0052 0.0051 0.0051 0.0053 0.0052 0.0053 
1866.209512 0.0054 0.0055 0.0056 0.0056 0.0053 0.0051 0.0053 0.0055 0.0055 
1874.889556 0.0055 0.0055 0.0055 0.0055 0.0054 0.0053 0.0055 0.0056 0.0056 
1883.569600 0.0055 0.0056 0.0055 0.0056 0.0057 0.0057 0.0056 0.0057 0.0058 
1892.249644 0.0058 0.0057 0.0057 0.0056 0.0058 0.0058 0.0059 0.0060 0.0060 
1900.929689 0.0059 0.0059 0.0060 0.0060 0.0061 0.0061 0.0060 0.0058 0.0059 
1909.609733 0.0060 0.0061 0.0062 0.0062 0.0062 0.0060 0.0061 0.0061 0.0061 
1918.289777 0.0062 0.0063 0.0063 0.0061 0.0056 0.0056 0.0061 0.0063 0.0063 
1926.969821 0.0063 0.0063 0.0063 0.0063 0.0063 0.0062 0.0061 0.0061 0.0062 
1935.649866 0.0062 0.0063 0.0062 0.0062 0.0062 0.0061 0.0059 0.0056 0.0059 
1944.329910 0.0062 0.0061 0.0061 0.0062 0.0062 0.0059 0.0058 0.0060 0.0061 
1953.009954 0.0061 0.0060 0.0059 0.0059 0.0056 0.0043 0.0042 0.0043 0.0056 
1961.689998 0.0059 0.0060 0.0060 0.0060 0.0059 0.0057 0.0056 0.0059 0.0059 
1970.370042 0.0059 0.0059 0.0059 0.0059 0.0059 0.0059 0.0059 0.0058 0.0058 
1979.050087 0.0058 0.0058 0.0058 0.0058 0.0058 0.0058 0.0058 0.0059 0.0058 
1987.730131 0.0056 0.0056 0.0058 0.0058 0.0054 0.0052 0.0057 0.0060 0.0059 
1996.410175 0.0059 0.0060 0.0060 0.0060 0.0061 0.0061 0.0062 0.0062 0.0061 
2005.090219 0.0061 0.0061 0.0060 0.0060 0.0060 0.0060 0.0060 0.0060 0.0060 
2013.770264 0.0061 0.0061 0.0059 0.0055 0.0056 0.0059 0.0061 0.0062 0.0063 
2022.450308 0.0063 0.0064 0.0065 0.0066 0.0067 0.0068 0.0069 0.0070 0.0071 
2031.130352 0.0070 0.0069 0.0069 0.0070 0.0070 0.0069 0.0069 0.0068 0.0068 
2039.810396 0.0067 0.0064 0.0064 0.0066 0.0066 0.0067 0.0066 0.0066 0.0066 
2048.490441 0.0067 0.0066 0.0067 0.0067 0.0067 0.0067 0.0067 0.0067 0.0068 
2057.170485 0.0068 0.0068 0.0068 0.0068 0.0068 0.0068 0.0068 0.0066 0.0063 
2065.850529 0.0065 0.0067 0.0067 0.0066 0.0066 0.0065 0.0065 0.0065 0.0065 
2074.530573 0.0064 0.0064 0.0064 0.0064 0.0064 0.0064 0.0064 0.0064 0.0064 
2083.210618 0.0065 0.0065 0.0065 0.0064 0.0064 0.0064 0.0063 0.0062 0.0062 
2091.890662 0.0064 0.0065 0.0064 0.0064 0.0063 0.0063 0.0063 0.0062 0.0061 
2100.570706 0.0062 0.0062 0.0062 0.0061 0.0062 0.0063 0.0062 0.0061 0.0061 
2109.250750 0.0062 0.0062 0.0061 0.0060 0.0061 0.0061 0.0060 0.0060 0.0061 
2117.930795 0.0061 0.0061 0.0061 0.0062 0.0062 0.0061 0.0060 0.0060 0.0060 
2126.610839 0.0061 0.0061 0.0061 0.0062 0.0062 0.0062 0.0062 0.0062 0.0061 
2135.290883 0.0061 0.0061 0.0062 0.0063 0.0063 0.0063 0.0063 0.0064 0.0064 
2143.970927 0.0064 0.0065 0.0065 0.0066 0.0067 0.0067 0.0067 0.0067 0.0068 
2152.650972 0.0070 0.0070 0.0070 0.0072 0.0073 0.0073 0.0072 0.0073 0.0073 
2161.331016 0.0071 0.0072 0.0074 0.0074 0.0073 0.0072 0.0073 0.0073 0.0073 
2170.011060 0.0073 0.0074 0.0073 0.0072 0.0073 0.0073 0.0072 0.0073 0.0074 
2178.691104 0.0074 0.0073 0.0075 0.0075 0.0075 0.0075 0.0075 0.0075 0.0075 
2187.371148 0.0075 0.0077 0.0077 0.0076 0.0077 0.0077 0.0077 0.0076 0.0076 
2196.051193 0.0075 0.0075 0.0076 0.0075 0.0074 0.0074 0.0074 0.0074 0.0073 
2204.731237 0.0073 0.0073 0.0072 0.0072 0.0072 0.0072 0.0072 0.0072 0.0072 
2213.411281 0.0073 0.0073 0.0074 0.0074 0.0074 0.0074 0.0074 0.0074 0.0074 
2222.091325 0.0074 0.0074 0.0074 0.0075 0.0076 0.0076 0.0076 0.0076 0.0076 
2230.771370 0.0077 0.0077 0.0076 0.0077 0.0076 0.0076 0.0076 0.0076 0.0076 
2239.451414 0.0076 0.0076 0.0076 0.0075 0.0076 0.0076 0.0076 0.0076 0.0077 
2248.131458 0.0076 0.0076 0.0075 0.0075 0.0074 0.0073 0.0073 0.0074 0.0073 
2256.811502 0.0072 0.0072 0.0072 0.0072 0.0071 0.0071 0.0072 0.0071 0.0070 
2265.491547 0.0069 0.0069 0.0069 0.0069 0.0068 0.0068 0.0068 0.0067 0.0067 
2274.171591 0.0067 0.0066 0.0066 0.0066 0.0065 0.0065 0.0064 0.0063 0.0062 
2282.851635 0.0062 0.0062 0.0062 0.0064 0.0064 0.0065 0.0064 0.0064 0.0065 
2291.531679 0.0066 0.0066 0.0067 0.0067 0.0068 0.0068 0.0069 0.0069 0.0069 
2300.211724 0.0069 0.0071 0.0071 0.0073 0.0072 0.0074 0.0074 0.0077 0.0075 
2308.891768 0.0078 0.0078 0.0080 0.0082 0.0085 0.0089 0.0089 0.0092 0.0093 
2317.571812 0.0096 0.0097 0.0104 0.0106 0.0111 0.0111 0.0117 0.0118 0.0123 
2326.251856 0.0124 0.0131 0.0132 0.0137 0.0136 0.0141 0.0142 0.0144 0.0145 
2334.931901 0.0148 0.0149 0.0153 0.0153 0.0155 0.0156 0.0158 0.0158 0.0158 
2343.611945 0.0155 0.0153 0.0147 0.0138 0.0127 0.0111 0.0106 0.0118 0.0131 
2352.291989 0.0144 0.0152 0.0161 0.0168 0.0177 0.0183 0.0188 0.0186 0.0189 
2360.972033 0.0187 0.0189 0.0186 0.0183 0.0179 0.0178 0.0172 0.0165 0.0155 
2369.652078 0.0149 0.0142 0.0135 0.0127 0.0120 0.0113 0.0107 0.0101 0.0096 
2378.332122 0.0090 0.0086 0.0082 0.0080 0.0077 0.0076 0.0075 0.0075 0.0076 
2387.012166 0.0076 0.0076 0.0077 0.0077 0.0078 0.0078 0.0079 0.0079 0.0080 
2395.692210 0.0081 0.0081 0.0082 0.0081 0.0080 0.0080 0.0080 0.0080 0.0080 
2404.372254 0.0081 0.0080 0.0080 0.0080 0.0080 0.0079 0.0079 0.0080 0.0080 
2413.052299 0.0081 0.0082 0.0081 0.0081 0.0081 0.0082 0.0082 0.0082 0.0081 
2421.732343 0.0082 0.0081 0.0080 0.0080 0.0080 0.0080 0.0080 0.0080 0.0079 
2430.412387 0.0079 0.0079 0.0079 0.0079 0.0078 0.0078 0.0078 0.0079 0.0079 
2439.092431 0.0079 0.0078 0.0078 0.0077 0.0077 0.0077 0.0077 0.0077 0.0078 
2447.772476 0.0077 0.0076 0.0076 0.0076 0.0076 0.0076 0.0075 0.0075 0.0074 
2456.452520 0.0073 0.0072 0.0073 0.0073 0.0073 0.0072 0.0072 0.0072 0.0072 
2465.132564 0.0071 0.0072 0.0072 0.0072 0.0072 0.0072 0.0071 0.0071 0.0072 
2473.812608 0.0071 0.0071 0.0071 0.0071 0.0071 0.0071 0.0071 0.0070 0.0070 
2482.492653 0.0069 0.0069 0.0069 0.0070 0.0070 0.0069 0.0069 0.0070 0.0069 
2491.172697 0.0069 0.0069 0.0069 0.0069 0.0070 0.0069 0.0070 0.0070 0.0070 
2499.852741 0.0071 0.0071 0.0071 0.0070 0.0070 0.0070 0.0070 0.0070 0.0071 
2508.532785 0.0071 0.0071 0.0071 0.0071 0.0071 0.0072 0.0073 0.0073 0.0073 
2517.212830 0.0073 0.0073 0.0074 0.0074 0.0074 0.0074 0.0074 0.0074 0.0075 
2525.892874 0.0075 0.0075 0.0076 0.0076 0.0076 0.0076 0.0077 0.0079 0.0078 
2534.572918 0.0078 0.0077 0.0077 0.0078 0.0078 0.0077 0.0077 0.0078 0.0078 
2543.252962 0.0078 0.0078 0.0078 0.0079 0.0079 0.0080 0.0081 0.0081 0.0082 
2551.933007 0.0082 0.0083 0.0083 0.0082 0.0082 0.0083 0.0083 0.0083 0.0083 
2560.613051 0.0083 0.0083 0.0083 0.0082 0.0083 0.0083 0.0083 0.0083 0.0083 
2569.293095 0.0084 0.0084 0.0084 0.0084 0.0084 0.0084 0.0085 0.0085 0.0085 
2577.973139 0.0086 0.0087 0.0088 0.0087 0.0087 0.0088 0.0088 0.0089 0.0090 
2586.653184 0.0092 0.0092 0.0092 0.0092 0.0092 0.0093 0.0093 0.0093 0.0094 
2595.333228 0.0095 0.0095 0.0096 0.0097 0.0098 0.0098 0.0099 0.0100 0.0101 
2604.013272 0.0102 0.0102 0.0103 0.0103 0.0104 0.0105 0.0105 0.0107 0.0109 
2612.693316 0.0111 0.0112 0.0114 0.0116 0.0117 0.0118 0.0119 0.0119 0.0118 
2621.373360 0.0117 0.0116 0.0115 0.0114 0.0113 0.0112 0.0111 0.0111 0.0111 
2630.053405 0.0111 0.0111 0.0112 0.0113 0.0114 0.0115 0.0115 0.0116 0.0117 
2638.733449 0.0118 0.0119 0.0120 0.0121 0.0122 0.0123 0.0124 0.0124 0.0124 
2647.413493 0.0124 0.0124 0.0124 0.0125 0.0124 0.0125 0.0125 0.0126 0.0127 
2656.093537 0.0128 0.0129 0.0130 0.0131 0.0132 0.0134 0.0136 0.0138 0.0140 
2664.773582 0.0142 0.0143 0.0145 0.0146 0.0147 0.0148 0.0148 0.0148 0.0148 
2673.453626 0.0149 0.0149 0.0149 0.0150 0.0151 0.0151 0.0151 0.0151 0.0150 
2682.133670 0.0150 0.0150 0.0150 0.0151 0.0151 0.0152 0.0152 0.0151 0.0151 
2690.813714 0.0151 0.0150 0.0147 0.0145 0.0143 0.0141 0.0138 0.0136 0.0135 
2699.493759 0.0133 0.0131 0.0130 0.0129 0.0128 0.0128 0.0127 0.0127 0.0127 
2708.173803 0.0127 0.0129 0.0131 0.0132 0.0134 0.0135 0.0136 0.0137 0.0140 
2716.853847 0.0142 0.0143 0.0144 0.0145 0.0145 0.0145 0.0145 0.0147 0.0149 
2725.533891 0.0152 0.0156 0.0159 0.0163 0.0168 0.0174 0.0179 0.0181 0.0180 
2734.213936 0.0178 0.0176 0.0175 0.0172 0.0168 0.0164 0.0162 0.0159 0.0157 
2742.893980 0.0155 0.0153 0.0152 0.0151 0.0150 0.0149 0.0148 0.0147 0.0146 
2751.574024 0.0145 0.0144 0.0143 0.0142 0.0141 0.0140 0.0139 0.0138 0.0138 
2760.254068 0.0138 0.0139 0.0140 0.0139 0.0140 0.0142 0.0143 0.0143 0.0144 
2768.934113 0.0145 0.0147 0.0149 0.0151 0.0154 0.0156 0.0157 0.0159 0.0162 
2777.614157 0.0165 0.0168 0.0171 0.0174 0.0178 0.0182 0.0186 0.0190 0.0194 
2786.294201 0.0198 0.0200 0.0203 0.0207 0.0210 0.0212 0.0213 0.0216 0.0218 
2794.974245 0.0221 0.0225 0.0229 0.0234 0.0238 0.0242 0.0246 0.0252 0.0257 
2803.654290 0.0262 0.0268 0.0274 0.0280 0.0286 0.0292 0.0297 0.0304 0.0311 
2812.334334 0.0318 0.0327 0.0335 0.0345 0.0355 0.0366 0.0377 0.0390 0.0404 
2821.014378 0.0419 0.0435 0.0452 0.0470 0.0491 0.0516 0.0542 0.0570 0.0602 
2829.694422 0.0638 0.0680 0.0728 0.0783 0.0848 0.0923 0.1005 0.1090 0.1169 
2838.374466 0.1234 0.1281 0.1315 0.1342 0.1376 0.1428 0.1505 0.1609 0.1745 
2847.054511 0.1911 0.2111 0.2337 0.2584 0.2837 0.3091 0.3333 0.3557 0.3758 
2855.734555 0.3942 0.4102 0.4245 0.4355 0.4419 0.4413 0.4334 0.4183 0.3988 
2864.414599 0.3777 0.3585 0.3430 0.3326 0.3275 0.3288 0.3360 0.3485 0.3628 
2873.094643 0.3732 0.3726 0.3584 0.3331 0.3039 0.2758 0.2519 0.2329 0.2187 
2881.774688 0.2085 0.2017 0.1974 0.1953 0.1947 0.1956 0.1977 0.2010 0.2050 
2890.454732 0.2100 0.2157 0.2219 0.2283 0.2348 0.2410 0.2467 0.2516 0.2562 
2899.134776 0.2605 0.2650 0.2698 0.2757 0.2823 0.2898 0.2980 0.3075 0.3177 
2907.814820 0.3288 0.3407 0.3540 0.3682 0.3842 0.4013 0.4203 0.4408 0.4632 
2916.494865 0.4863 0.5114 0.5374 0.5646 0.5920 0.6201 0.6474 0.6756 0.7032 
2925.174909 0.7317 0.7590 0.7860 0.8092 0.8293 0.8456 0.8599 0.8667 0.8664 
2933.854953 0.8566 0.8397 0.8139 0.7830 0.7471 0.7108 0.6743 0.6399 0.6066 
2942.534997 0.5766 0.5492 0.5265 0.5077 0.4939 0.4855 0.4843 0.4897 0.5027 
2951.215042 0.5222 0.5492 0.5819 0.6193 0.6573 0.6942 0.7267 0.7551 0.7759 
2959.895086 0.7903 0.7947 0.7897 0.7737 0.7489 0.7141 0.6728 0.6257 0.5768 
2968.575130 0.5269 0.4783 0.4314 0.3876 0.3471 0.3108 0.2783 0.2500 0.2253 
2977.255174 0.2039 0.1852 0.1692 0.1552 0.1431 0.1325 0.1235 0.1155 0.1085 
2985.935219 0.1024 0.0971 0.0922 0.0880 0.0845 0.0815 0.0788 0.0766 0.0747 
2994.615263 0.0733 0.0725 0.0721 0.0720 0.0721 0.0726 0.0734 0.0743 0.0753 
3003.295307 0.0762 0.0769 0.0771 0.0769 0.0761 0.0748 0.0730 0.0707 0.0680 
3011.975351 0.0649 0.0614 0.0580 0.0546 0.0513 0.0482 0.0453 0.0425 0.0401 
3020.655396 0.0378 0.0359 0.0342 0.0326 0.0312 0.0301 0.0291 0.0281 0.0273 
3029.335440 0.0265 0.0257 0.0250 0.0244 0.0239 0.0234 0.0230 0.0224 0.0221 
3038.015484 0.0218 0.0213 0.0208 0.0204 0.0201 0.0198 0.0195 0.0192 0.0188 
3046.695528 0.0185 0.0182 0.0180 0.0177 0.0174 0.0171 0.0169 0.0167 0.0164 
3055.375572 0.0161 0.0159 0.0159 0.0157 0.0155 0.0154 0.0152 0.0150 0.0148 
3064.055617 0.0147 0.0146 0.0144 0.0142 0.0141 0.0140 0.0139 0.0137 0.0136 
3072.735661 0.0135 0.0135 0.0133 0.0131 0.0130 0.0130 0.0128 0.0127 0.0126 
3081.415705 0.0124 0.0124 0.0123 0.0122 0.0120 0.0119 0.0118 0.0116 0.0116 
3090.095749 0.0116 0.0115 0.0114 0.0113 0.0112 0.0110 0.0110 0.0109 0.0108 
3098.775794 0.0108 0.0107 0.0107 0.0105 0.0106 0.0106 0.0105 0.0103 0.0104 
3107.455838 0.0103 0.0102 0.0101 0.0101 0.0101 0.0099 0.0099 0.0099 0.0098 
3116.135882 0.0098 0.0098 0.0096 0.0096 0.0096 0.0095 0.0094 0.0093 0.0092 
3124.815926 0.0092 0.0093 0.0092 0.0091 0.0092 0.0092 0.0091 0.0091 0.0091 
3133.495971 0.0091 0.0091 0.0091 0.0090 0.0091 0.0091 0.0091 0.0090 0.0090 
3142.176015 0.0090 0.0089 0.0089 0.0089 0.0089 0.0089 0.0088 0.0088 0.0089 
3150.856059 0.0088 0.0087 0.0087 0.0088 0.0088 0.0087 0.0086 0.0086 0.0086 
3159.536103 0.0086 0.0086 0.0087 0.0087 0.0087 0.0087 0.0085 0.0084 0.0084 
3168.216148 0.0085 0.0085 0.0085 0.0086 0.0085 0.0085 0.0085 0.0086 0.0086 
3176.896192 0.0086 0.0086 0.0086 0.0085 0.0084 0.0086 0.0086 0.0085 0.0086 
3185.576236 0.0086 0.0086 0.0085 0.0085 0.0085 0.0085 0.0085 0.0084 0.0084 
3194.256280 0.0084 0.0083 0.0082 0.0082 0.0082 0.0082 0.0081 0.0080 0.0079 
3202.936325 0.0078 0.0078 0.0077 0.0077 0.0077 0.0076 0.0075 0.0075 0.0075 
3211.616369 0.0074 0.0073 0.0072 0.0071 0.0071 0.0071 0.0069 0.0068 0.0068 
3220.296413 0.0067 0.0066 0.0065 0.0065 0.0064 0.0064 0.0063 0.0062 0.0061 
3228.976457 0.0061 0.0062 0.0062 0.0061 0.0060 0.0060 0.0059 0.0059 0.0059 
3237.656502 0.0058 0.0058 0.0057 0.0056 0.0056 0.0055 0.0055 0.0055 0.0055 
3246.336546 0.0056 0.0055 0.0054 0.0053 0.0052 0.0051 0.0053 0.0052 0.0051 
3255.016590 0.0051 0.0052 0.0050 0.0050 0.0051 0.0051 0.0051 0.0050 0.0049 
3263.696634 0.0049 0.0048 0.0048 0.0049 0.0048 0.0048 0.0047 0.0047 0.0049 
3272.376678 0.0049 0.0048 0.0048 0.0048 0.0046 0.0047 0.0047 0.0046 0.0048 
3281.056723 0.0048 0.0046 0.0045 0.0045 0.0045 0.0046 0.0045 0.0046 0.0047 
3289.736767 0.0046 0.0046 0.0047 0.0047 0.0047 0.0046 0.0047 0.0047 0.0046 
3298.416811 0.0046 0.0046 0.0045 0.0045 0.0046 0.0046 0.0046 0.0046 0.0046 
3307.096855 0.0046 0.0046 0.0045 0.0044 0.0045 0.0044 0.0045 0.0046 0.0046 
3315.776900 0.0045 0.0045 0.0045 0.0045 0.0044 0.0044 0.0044 0.0044 0.0044 
3324.456944 0.0044 0.0045 0.0043 0.0042 0.0041 0.0042 0.0043 0.0043 0.0042 
3333.136988 0.0041 0.0041 0.0041 0.0042 0.0041 0.0041 0.0041 0.0040 0.0041 
3341.817032 0.0042 0.0042 0.0042 0.0041 0.0040 0.0039 0.0041 0.0042 0.0041 
3350.497077 0.0039 0.0039 0.0039 0.0039 0.0038 0.0036 0.0036 0.0036 0.0037 
3359.177121 0.0038 0.0038 0.0036 0.0034 0.0034 0.0035 0.0036 0.0037 0.0037 
3367.857165 0.0036 0.0036 0.0036 0.0036 0.0036 0.0035 0.0035 0.0036 0.0035 
3376.537209 0.0035 0.0035 0.0035 0.0035 0.0034 0.0033 0.0033 0.0032 0.0032 
3385.217254 0.0031 0.0032 0.0033 0.0034 0.0035 0.0035 0.0033 0.0031 0.0031 
3393.897298 0.0032 0.0034 0.0034 0.0031 0.0031 0.0034 0.0035 0.0034 0.0034 
3402.577342 0.0033 0.0032 0.0032 0.0033 0.0034 0.0034 0.0034 0.0034 0.0033 
3411.257386 0.0033 0.0034 0.0034 0.0033 0.0033 0.0034 0.0033 0.0034 0.0033 
3419.937431 0.0031 0.0030 0.0030 0.0031 0.0031 0.0032 0.0032 0.0032 0.0032 
3428.617475 0.0032 0.0033 0.0033 0.0032 0.0032 0.0034 0.0035 0.0034 0.0033 
3437.297519 0.0033 0.0033 0.0033 0.0033 0.0031 0.0030 0.0031 0.0031 0.0031 
3445.977563 0.0029 0.0027 0.0028 0.0030 0.0032 0.0033 0.0032 0.0030 0.0030 
3454.657608 0.0030 0.0030 0.0030 0.0030 0.0028 0.0028 0.0028 0.0028 0.0028 
3463.337652 0.0029 0.0030 0.0029 0.0028 0.0029 0.0030 0.0031 0.0029 0.0028 
3472.017696 0.0028 0.0027 0.0026 0.0027 0.0028 0.0028 0.0028 0.0028 0.0023 
3480.697740 0.0020 0.0021 0.0024 0.0026 0.0026 0.0027 0.0028 0.0026 0.0025 
3489.377784 0.0027 0.0028 0.0027 0.0027 0.0027 0.0027 0.0026 0.0026 0.0027 
3498.057829 0.0028 0.0027 0.0024 0.0021 0.0015 0.0014 0.0019 0.0025 0.0028 
3506.737873 0.0029 0.0026 0.0020 0.0016 0.0022 0.0028 0.0029 0.0029 0.0028 
3515.417917 0.0027 0.0027 0.0027 0.0027 0.0027 0.0028 0.0027 0.0023 0.0017 
3524.097961 0.0014 0.0017 0.0020 0.0021 0.0023 0.0027 0.0029 0.0030 0.0030 
3532.778006 0.0031 0.0032 0.0031 0.0026 0.0023 0.0027 0.0031 0.0031 0.0032 
3541.458050 0.0033 0.0032 0.0028 0.0022 0.0016 0.0017 0.0019 0.0028 0.0034 
3550.138094 0.0033 0.0032 0.0030 0.0029 0.0029 0.0032 0.0035 0.0035 0.0034 
3558.818138 0.0032 0.0027 0.0028 0.0031 0.0031 0.0032 0.0029 0.0014 0.0001 
3567.498183 0.0008 0.0017 0.0034 0.0036 0.0037 0.0039 0.0039 0.0038 0.0039 
3576.178227 0.0038 0.0037 0.0039 0.0037 0.0033 0.0036 0.0040 0.0040 0.0041 
3584.858271 0.0041 0.0033 0.0019 0.0019 0.0025 0.0041 0.0045 0.0044 0.0040 
3593.538315 0.0038 0.0039 0.0035 0.0041 0.0044 0.0044 0.0045 0.0045 0.0045 
3602.218360 0.0046 0.0046 0.0048 0.0048 0.0044 0.0035 0.0037 0.0036 0.0043 
3610.898404 0.0050 0.0043 0.0039 0.0044 0.0043 0.0047 0.0047 0.0040 0.0042 
3619.578448 0.0041 0.0047 0.0051 0.0052 0.0052 0.0053 0.0052 0.0051 0.0050 
3628.258492 0.0037 0.0033 0.0054 0.0059 0.0057 0.0054 0.0053 0.0058 0.0059 
3636.938537 0.0058 0.0059 0.0060 0.0060 0.0056 0.0054 0.0054 0.0056 0.0055 
3645.618581 0.0049 0.0041 0.0037 0.0038 0.0044 0.0056 0.0068 0.0068 0.0066 
3654.298625 0.0062 0.0057 0.0062 0.0068 0.0067 0.0067 0.0067 0.0068 0.0066 
3662.978669 0.0064 0.0064 0.0065 0.0065 0.0066 0.0066 0.0064 0.0068 0.0066 
3671.658714 0.0079 0.0079 0.0072 0.0065 0.0068 0.0081 0.0080 0.0075 0.0072 
3680.338758 0.0074 0.0075 0.0072 0.0070 0.0070 0.0072 0.0073 0.0073 0.0070 
3689.018802 0.0081 0.0084 0.0077 0.0081 0.0080 0.0077 0.0077 0.0076 0.0073 
3697.698846 0.0074 0.0073 0.0071 0.0070 0.0065 0.0072 0.0076 0.0072 0.0071 
3706.378890 0.0070 0.0071 0.0070 0.0070 0.0073 0.0069 0.0064 0.0073 0.0070 
3715.058935 0.0064 0.0066 0.0070 0.0071 0.0067 0.0069 0.0070 0.0064 0.0063 
3723.738979 0.0066 0.0060 0.0056 0.0057 0.0065 0.0071 0.0072 0.0073 0.0075 
3732.419023 0.0079 0.0079 0.0057 0.0046 0.0060 0.0070 0.0074 0.0072 0.0069 
3741.099067 0.0065 0.0071 0.0071 0.0051 0.0049 0.0078 0.0074 0.0069 0.0068 
3749.779112 0.0074 0.0083 0.0070 0.0071 0.0077 0.0074 0.0072 0.0069 0.0072 
3758.459156 0.0067 0.0061 0.0073 0.0077 0.0072 0.0070 0.0068 0.0065 0.0069 
3767.139200 0.0071 0.0068 0.0069 0.0076 0.0075 0.0072 0.0072 0.0072 0.0072 
3775.819244 0.0073 0.0072 0.0071 0.0072 0.0075 0.0076 0.0074 0.0072 0.0070 
3784.499289 0.0069 0.0071 0.0070 0.0071 0.0073 0.0073 0.0072 0.0073 0.0072 
3793.179333 0.0070 0.0070 0.0071 0.0071 0.0072 0.0073 0.0073 0.0074 0.0072 
3801.859377 0.0082 0.0085 0.0080 0.0077 0.0074 0.0071 0.0080 0.0081 0.0074 
3810.539421 0.0071 0.0071 0.0072 0.0071 0.0071 0.0070 0.0075 0.0081 0.0075 
3819.219466 0.0071 0.0071 0.0076 0.0085 0.0082 0.0076 0.0074 0.0073 0.0074 
3827.899510 0.0076 0.0073 0.0071 0.0069 0.0068 0.0073 0.0073 0.0071 0.0076 
3836.579554 0.0076 0.0069 0.0077 0.0075 0.0066 0.0072 0.0075 0.0070 0.0073 
3845.259598 0.0077 0.0074 0.0072 0.0071 0.0068 0.0068 0.0070 0.0065 0.0070 
3853.939643 0.0063 0.0076 0.0078 0.0066 0.0066 0.0072 0.0071 0.0069 0.0063 
3862.619687 0.0070 0.0074 0.0066 0.0067 0.0072 0.0069 0.0065 0.0057 0.0060 
3871.299731 0.0070 0.0072 0.0068 0.0063 0.0076 0.0076 0.0072 0.0071 0.0068 
3879.979775 0.0057 0.0060 0.0072 0.0069 0.0066 0.0064 0.0056 0.0071 0.0077 
3888.659820 0.0074 0.0072 0.0066 0.0061 0.0072 0.0071 0.0067 0.0070 0.0070 
3897.339864 0.0068 0.0063 0.0057 0.0067 0.0064 0.0055 0.0064 0.0059 0.0060 
3906.019908 0.0063 0.0070 0.0075 0.0075 0.0074 0.0073 0.0073 0.0073 0.0073 
3914.699952 0.0072 0.0066 0.0057 0.0060 0.0069 0.0065 0.0065 0.0074 0.0075 
3923.379996 0.0069 0.0061 0.0064 0.0074 0.0076 0.0075 0.0073 0.0069 0.0064 
3932.060041 0.0058 0.0062 0.0070 0.0073 0.0075 0.0073 0.0073 0.0072 0.0074 
3940.740085 0.0073 0.0069 0.0063 0.0067 0.0073 0.0076 0.0072 0.0065 0.0066 
3949.420129 0.0066 0.0067 0.0075 0.0077 0.0078 0.0079 0.0077 0.0075 0.0073 
3958.100173 0.0074 0.0075 0.0076 0.0074 0.0072 0.0075 0.0078 0.0078 0.0078 
3966.780218 0.0079 0.0080 0.0079 0.0077 0.0076 0.0077 0.0078 0.0080 0.0079 
3975.460262 0.0075 0.0074 0.0077 0.0079 0.0078 0.0078 0.0079 0.0079 0.0081 
3984.140306 0.0082 0.0082 0.0081 0.0082 0.0081 0.0080 0.0077 0.0076 0.0079 
3992.820350 0.0081 0.0080 0.0080 0.0081 0.0082 0.0083 0.0083 0.0082 0.0082 
##END=
