##JCAMP-DX=5.01
##FILENAME=KAM-04.jdx
##XUNITS=1/CM
##YUNITS=ABSORBANCE
##FIRSTX=399.282035
##LASTX=4000.535945
##MAXX=4000.535945
##MINX=399.282035
##FIRSTY=0.0010
##LASTY=0.0010
##MAXY=0.8296
##MINY=0.0000
##NPOINTS=3735
##XFACTOR=1
##YFACTOR=1
##XYDATA=(X++(Y..Y))
399.282035 0.0010 0.0091 0.0100 0.0039 0.0014 0.0049 0.0098 0.0093 0.0091 0.0128 
408.926529 0.0119 0.0113 0.0102 0.0105 0.0080 0.0028 0.0078 0.0140 0.0164 0.0183 
418.571022 0.0196 0.0187 0.0170 0.0205 0.0268 0.0349 0.0390 0.0457 0.0482 0.0474 
428.215516 0.0515 0.0600 0.0682 0.0761 0.0815 0.0861 0.0918 0.0953 0.0972 0.0940 
437.860009 0.0862 0.0783 0.0707 0.0634 0.0541 0.0462 0.0404 0.0310 0.0250 0.0220 
447.504503 0.0186 0.0165 0.0169 0.0154 0.0144 0.0147 0.0140 0.0124 0.0118 0.0120 
457.148997 0.0124 0.0103 0.0085 0.0091 0.0113 0.0128 0.0127 0.0117 0.0096 0.0093 
466.793490 0.0099 0.0115 0.0103 0.0094 0.0094 0.0100 0.0118 0.0106 0.0101 0.0106 
476.437984 0.0109 0.0107 0.0107 0.0111 0.0119 0.0134 0.0137 0.0140 0.0144 0.0153 
486.082477 0.0170 0.0168 0.0169 0.0183 0.0193 0.0203 0.0232 0.0238 0.0235 0.0234 
495.726971 0.0223 0.0215 0.0206 0.0206 0.0211 0.0220 0.0217 0.0200 0.0185 0.0181 
505.371465 0.0172 0.0165 0.0161 0.0156 0.0150 0.0153 0.0152 0.0141 0.0137 0.0134 
515.015958 0.0127 0.0126 0.0136 0.0131 0.0124 0.0126 0.0116 0.0110 0.0109 0.0109 
524.660452 0.0110 0.0119 0.0126 0.0115 0.0106 0.0106 0.0111 0.0116 0.0114 0.0123 
534.304945 0.0131 0.0130 0.0131 0.0138 0.0140 0.0146 0.0152 0.0157 0.0161 0.0166 
543.949439 0.0171 0.0180 0.0191 0.0204 0.0216 0.0226 0.0241 0.0261 0.0281 0.0302 
553.593933 0.0325 0.0355 0.0390 0.0434 0.0484 0.0536 0.0600 0.0673 0.0747 0.0831 
563.238426 0.0926 0.1027 0.1126 0.1224 0.1314 0.1387 0.1444 0.1469 0.1462 0.1422 
572.882920 0.1351 0.1261 0.1164 0.1060 0.0936 0.0829 0.0739 0.0663 0.0599 0.0533 
582.527413 0.0478 0.0436 0.0406 0.0374 0.0346 0.0321 0.0299 0.0284 0.0273 0.0266 
592.171907 0.0256 0.0241 0.0230 0.0223 0.0219 0.0217 0.0217 0.0214 0.0213 0.0212 
601.816401 0.0200 0.0197 0.0198 0.0197 0.0189 0.0182 0.0178 0.0174 0.0171 0.0168 
611.460894 0.0164 0.0157 0.0149 0.0145 0.0149 0.0153 0.0150 0.0142 0.0136 0.0142 
621.105388 0.0143 0.0134 0.0133 0.0137 0.0152 0.0151 0.0135 0.0130 0.0130 0.0132 
630.749881 0.0135 0.0140 0.0146 0.0143 0.0152 0.0167 0.0152 0.0148 0.0149 0.0161 
640.394375 0.0162 0.0157 0.0159 0.0161 0.0157 0.0160 0.0161 0.0160 0.0162 0.0164 
650.038869 0.0010 0.0010 0.0010 0.0010 0.0010 0.0010 0.0010 0.0010 0.0010 0.0010 
659.683362 0.0010 0.0010 0.0010 0.0010 0.0010 0.0010 0.0010 0.0010 0.0010 0.0010 
669.327856 0.0010 0.0010 0.0010 0.0010 0.0010 0.0010 0.0010 0.0010 0.0010 0.0010 
678.972349 0.0010 0.0010 0.0010 0.0010 0.0010 0.0010 0.0010 0.0010 0.0010 0.0010 
688.616843 0.0010 0.0010 0.0010 0.0010 0.0010 0.0010 0.0010 0.0010 0.0010 0.0010 
698.261337 0.0010 0.0010 0.0010 0.0010 0.0010 0.0010 0.0010 0.0010 0.0010 0.0010 
707.905830 0.0010 0.0010 0.0010 0.0010 0.0010 0.0010 0.0010 0.0010 0.0010 0.0010 
717.550324 0.0010 0.0010 0.0010 0.0010 0.0010 0.0010 0.0010 0.0010 0.0010 0.0010 
727.194817 0.0010 0.0010 0.0010 0.0010 0.0010 0.0010 0.0010 0.0010 0.0010 0.0010 
736.839311 0.0010 0.0010 0.0010 0.0010 0.0010 0.0010 0.0010 0.0010 0.0010 0.0010 
746.483805 0.0010 0.0010 0.0010 0.0010 0.0010 0.0010 0.0010 0.0010 0.0010 0.0010 
756.128298 0.0010 0.0010 0.0010 0.0010 0.0010 0.0010 0.0010 0.0010 0.0010 0.0010 
765.772792 0.0010 0.0010 0.0010 0.0010 0.0010 0.0010 0.0010 0.0010 0.0010 0.0010 
775.417285 0.0010 0.0010 0.0010 0.0010 0.0010 0.0010 0.0010 0.0010 0.0010 0.0010 
785.061779 0.0010 0.0010 0.0010 0.0010 0.0010 0.0010 0.0010 0.0010 0.0010 0.0010 
794.706273 0.0010 0.0010 0.0010 0.0010 0.0010 0.0010 0.0010 0.0010 0.0010 0.0010 
804.350766 0.0010 0.0010 0.0010 0.0010 0.0010 0.0010 0.0010 0.0010 0.0010 0.0010 
813.995260 0.0010 0.0010 0.0010 0.0010 0.0010 0.0010 0.0010 0.0010 0.0010 0.0010 
823.639753 0.0010 0.0010 0.0010 0.0010 0.0010 0.0010 0.0010 0.0010 0.0010 0.0010 
833.284247 0.0010 0.0010 0.0010 0.0010 0.0010 0.0010 0.0010 0.0010 0.0010 0.0010 
842.928741 0.0010 0.0010 0.0010 0.0010 0.0010 0.0010 0.0010 0.0010 0.0010 0.0010 
852.573234 0.0010 0.0010 0.0010 0.0010 0.0010 0.0010 0.0010 0.0010 0.0216 0.0228 
862.217728 0.0240 0.0255 0.0269 0.0282 0.0294 0.0306 0.0319 0.0330 0.0339 0.0350 
871.862221 0.0361 0.0371 0.0381 0.0392 0.0402 0.0412 0.0420 0.0430 0.0440 0.0449 
881.506715 0.0459 0.0471 0.0484 0.0500 0.0516 0.0536 0.0558 0.0586 0.0618 0.0657 
891.151209 0.0701 0.0754 0.0811 0.0876 0.0949 0.1034 0.1134 0.1254 0.1401 0.1582 
900.795702 0.1801 0.2062 0.2354 0.2661 0.2948 0.3177 0.3330 0.3423 0.3495 0.3591 
910.440196 0.3745 0.3979 0.4299 0.4704 0.5185 0.5713 0.6232 0.6667 0.6918 0.6887 
920.084689 0.6535 0.5926 0.5185 0.4428 0.3739 0.3155 0.2674 0.2286 0.1978 0.1735 
929.729183 0.1547 0.1398 0.1279 0.1182 0.1101 0.1034 0.0978 0.0929 0.0887 0.0852 
939.373677 0.0820 0.0791 0.0765 0.0741 0.0720 0.0701 0.0681 0.0662 0.0645 0.0627 
949.018170 0.0608 0.0592 0.0575 0.0558 0.0543 0.0527 0.0511 0.0496 0.0480 0.0465 
958.662664 0.0451 0.0438 0.0424 0.0411 0.0398 0.0387 0.0375 0.0364 0.0353 0.0344 
968.307157 0.0334 0.0326 0.0320 0.0315 0.0309 0.0305 0.0303 0.0302 0.0301 0.0302 
977.951651 0.0305 0.0309 0.0312 0.0317 0.0322 0.0326 0.0331 0.0335 0.0339 0.0343 
987.596145 0.0346 0.0349 0.0353 0.0358 0.0364 0.0372 0.0380 0.0390 0.0399 0.0408 
997.240638 0.0417 0.0426 0.0436 0.0449 0.0466 0.0487 0.0513 0.0547 0.0586 0.0633 
1006.885132 0.0688 0.0755 0.0834 0.0932 0.1050 0.1193 0.1352 0.1506 0.1617 
1015.565176 0.1652 0.1602 0.1494 0.1361 0.1227 0.1105 0.0997 0.0904 0.0823 
1024.245220 0.0754 0.0695 0.0645 0.0603 0.0568 0.0539 0.0516 0.0497 0.0481 
1032.925265 0.0471 0.0464 0.0459 0.0456 0.0454 0.0451 0.0448 0.0443 0.0434 
1041.605309 0.0423 0.0411 0.0397 0.0381 0.0364 0.0350 0.0337 0.0324 0.0313 
1050.285353 0.0304 0.0296 0.0289 0.0285 0.0282 0.0281 0.0281 0.0282 0.0286 
1058.965397 0.0292 0.0299 0.0309 0.0322 0.0338 0.0357 0.0378 0.0402 0.0426 
1067.645442 0.0450 0.0471 0.0492 0.0513 0.0540 0.0572 0.0613 0.0664 0.0732 
1076.325486 0.0822 0.0941 0.1095 0.1285 0.1490 0.1646 0.1653 0.1485 0.1225 
1085.005530 0.0980 0.0792 0.0661 0.0568 0.0501 0.0450 0.0412 0.0383 0.0360 
1093.685574 0.0343 0.0330 0.0320 0.0314 0.0309 0.0307 0.0307 0.0309 0.0311 
1102.365618 0.0317 0.0325 0.0336 0.0349 0.0366 0.0386 0.0408 0.0434 0.0464 
1111.045663 0.0499 0.0538 0.0580 0.0626 0.0676 0.0726 0.0770 0.0807 0.0828 
1119.725707 0.0831 0.0813 0.0776 0.0725 0.0667 0.0609 0.0555 0.0505 0.0463 
1128.405751 0.0427 0.0397 0.0371 0.0350 0.0332 0.0318 0.0305 0.0295 0.0286 
1137.085795 0.0278 0.0269 0.0262 0.0254 0.0246 0.0238 0.0229 0.0221 0.0214 
1145.765840 0.0207 0.0202 0.0195 0.0191 0.0186 0.0182 0.0177 0.0173 0.0169 
1154.445884 0.0167 0.0163 0.0160 0.0157 0.0155 0.0153 0.0151 0.0149 0.0148 
1163.125928 0.0145 0.0143 0.0141 0.0140 0.0139 0.0138 0.0137 0.0136 0.0135 
1171.805972 0.0135 0.0135 0.0135 0.0135 0.0135 0.0134 0.0133 0.0132 0.0132 
1180.486017 0.0131 0.0131 0.0131 0.0131 0.0131 0.0130 0.0131 0.0132 0.0131 
1189.166061 0.0131 0.0131 0.0132 0.0132 0.0133 0.0134 0.0135 0.0135 0.0137 
1197.846105 0.0139 0.0141 0.0141 0.0144 0.0146 0.0149 0.0150 0.0154 0.0158 
1206.526149 0.0162 0.0166 0.0171 0.0178 0.0184 0.0192 0.0202 0.0212 0.0222 
1215.206194 0.0234 0.0248 0.0263 0.0281 0.0301 0.0324 0.0347 0.0375 0.0405 
1223.886238 0.0440 0.0480 0.0525 0.0572 0.0626 0.0686 0.0751 0.0823 0.0901 
1232.566282 0.0984 0.1072 0.1163 0.1253 0.1337 0.1411 0.1467 0.1497 0.1496 
1241.246326 0.1462 0.1397 0.1308 0.1203 0.1093 0.0988 0.0894 0.0812 0.0744 
1249.926371 0.0689 0.0645 0.0610 0.0583 0.0557 0.0533 0.0506 0.0479 0.0451 
1258.606415 0.0425 0.0403 0.0385 0.0366 0.0352 0.0342 0.0337 0.0334 0.0333 
1267.286459 0.0330 0.0330 0.0333 0.0337 0.0340 0.0346 0.0351 0.0359 0.0370 
1275.966503 0.0382 0.0395 0.0410 0.0427 0.0446 0.0465 0.0486 0.0506 0.0529 
1284.646548 0.0551 0.0573 0.0594 0.0615 0.0626 0.0629 0.0628 0.0620 0.0603 
1293.326592 0.0580 0.0551 0.0519 0.0486 0.0451 0.0415 0.0383 0.0354 0.0330 
1302.006636 0.0308 0.0291 0.0276 0.0268 0.0260 0.0257 0.0260 0.0260 0.0253 
1310.686680 0.0255 0.0272 0.0299 0.0307 0.0312 0.0317 0.0345 0.0374 0.0399 
1319.366724 0.0433 0.0456 0.0480 0.0507 0.0546 0.0580 0.0611 0.0643 0.0672 
1328.046769 0.0693 0.0701 0.0694 0.0670 0.0639 0.0606 0.0575 0.0547 0.0539 
1336.726813 0.0537 0.0520 0.0517 0.0512 0.0478 0.0427 0.0384 0.0367 0.0350 
1345.406857 0.0334 0.0317 0.0302 0.0290 0.0281 0.0264 0.0250 0.0240 0.0232 
1354.086901 0.0235 0.0242 0.0220 0.0212 0.0217 0.0211 0.0210 0.0239 0.0247 
1362.766946 0.0265 0.0259 0.0222 0.0213 0.0218 0.0236 0.0268 0.0271 0.0263 
1371.446990 0.0276 0.0299 0.0339 0.0368 0.0374 0.0365 0.0391 0.0441 0.0475 
1380.127034 0.0510 0.0552 0.0616 0.0680 0.0723 0.0732 0.0727 0.0694 0.0603 
1388.807078 0.0496 0.0432 0.0401 0.0371 0.0350 0.0366 0.0404 0.0403 0.0392 
1397.487123 0.0404 0.0432 0.0461 0.0460 0.0477 0.0530 0.0601 0.0708 0.0867 
1406.167167 0.1001 0.1153 0.1361 0.1549 0.1658 0.1652 0.1566 0.1442 0.1349 
1414.847211 0.1284 0.1242 0.1179 0.1100 0.1051 0.0968 0.0869 0.0822 0.0810 
1423.527255 0.0842 0.0842 0.0804 0.0783 0.0771 0.0757 0.0737 0.0704 0.0655 
1432.207300 0.0630 0.0608 0.0568 0.0553 0.0582 0.0575 0.0506 0.0468 0.0458 
1440.887344 0.0457 0.0459 0.0462 0.0475 0.0498 0.0526 0.0560 0.0632 0.0688 
1449.567388 0.0687 0.0693 0.0704 0.0694 0.0662 0.0678 0.0718 0.0781 0.0891 
1458.247432 0.0968 0.1092 0.1174 0.1212 0.1226 0.1231 0.1254 0.1258 0.1157 
1466.927477 0.1010 0.0849 0.0701 0.0595 0.0537 0.0527 0.0490 0.0438 0.0376 
1475.607521 0.0356 0.0350 0.0296 0.0261 0.0247 0.0249 0.0257 0.0231 0.0207 
1484.287565 0.0197 0.0202 0.0219 0.0213 0.0214 0.0235 0.0254 0.0217 0.0153 
1492.967609 0.0118 0.0110 0.0109 0.0134 0.0142 0.0110 0.0114 0.0112 0.0010 
1501.647654 0.0010 0.0010 0.0010 0.0010 0.0010 0.0010 0.0010 0.0010 0.0010 
1510.327698 0.0010 0.0010 0.0010 0.0010 0.0010 0.0010 0.0010 0.0010 0.0010 
1519.007742 0.0010 0.0010 0.0010 0.0010 0.0010 0.0010 0.0010 0.0010 0.0010 
1527.687786 0.0010 0.0010 0.0010 0.0010 0.0010 0.0010 0.0010 0.0010 0.0010 
1536.367830 0.0010 0.0010 0.0010 0.0010 0.0010 0.0010 0.0010 0.0010 0.0010 
1545.047875 0.0010 0.0010 0.0010 0.0010 0.0010 0.0010 0.0010 0.0010 0.0010 
1553.727919 0.0010 0.0010 0.0010 0.0010 0.0010 0.0010 0.0010 0.0010 0.0010 
1562.407963 0.0010 0.0010 0.0010 0.0010 0.0010 0.0010 0.0010 0.0010 0.0010 
1571.088007 0.0010 0.0010 0.0010 0.0010 0.0010 0.0010 0.0010 0.0010 0.0010 
1579.768052 0.0010 0.0010 0.0010 0.0010 0.0010 0.0010 0.0010 0.0010 0.0010 
1588.448096 0.0010 0.0010 0.0010 0.0010 0.0010 0.0010 0.0010 0.0010 0.0010 
1597.128140 0.0010 0.0010 0.0010 0.0010 0.0010 0.0010 0.0010 0.0010 0.0010 
1605.808184 0.0010 0.0010 0.0010 0.0010 0.0010 0.0010 0.0010 0.0010 0.0010 
1614.488229 0.0010 0.0010 0.0010 0.0010 0.0010 0.0010 0.0010 0.0010 0.0010 
1623.168273 0.0010 0.0010 0.0010 0.0010 0.0010 0.0010 0.0010 0.0010 0.0010 
1631.848317 0.0010 0.0010 0.0010 0.0010 0.0010 0.0010 0.0010 0.0010 0.0010 
1640.528361 0.0010 0.0010 0.0010 0.0010 0.0010 0.0010 0.0010 0.0010 0.0010 
1649.208406 0.0010 0.0155 0.0145 0.0186 0.0248 0.0260 0.0232 0.0203 0.0200 
1657.888450 0.0199 0.0194 0.0200 0.0211 0.0220 0.0223 0.0232 0.0225 0.0230 
1666.568494 0.0234 0.0255 0.0287 0.0297 0.0277 0.0294 0.0304 0.0294 0.0295 
1675.248538 0.0345 0.0370 0.0353 0.0363 0.0406 0.0459 0.0480 0.0472 0.0502 
1683.928583 0.0594 0.0645 0.0615 0.0625 0.0681 0.0728 0.0747 0.0768 0.0777 
1692.608627 0.0799 0.0827 0.0854 0.0920 0.1023 0.1028 0.1050 0.1085 0.1287 
1701.288671 0.1393 0.1421 0.1503 0.1661 0.1851 0.2045 0.2359 0.2618 0.2902 
1709.968715 0.3313 0.3780 0.4197 0.4623 0.5035 0.5417 0.5638 0.5659 0.5547 
1718.648760 0.4997 0.4503 0.4060 0.3575 0.3120 0.2691 0.2279 0.1967 0.1709 
1727.328804 0.1492 0.1323 0.1227 0.1110 0.0984 0.0911 0.0892 0.0878 0.0756 
1736.008848 0.0680 0.0652 0.0635 0.0616 0.0613 0.0598 0.0590 0.0632 0.0657 
1744.688892 0.0650 0.0644 0.0667 0.0694 0.0723 0.0739 0.0756 0.0798 0.0786 
1753.368936 0.0758 0.0751 0.0756 0.0789 0.0817 0.0803 0.0786 0.0777 0.0798 
1762.048981 0.0838 0.0815 0.0809 0.0825 0.0855 0.0894 0.0978 0.1038 0.1044 
1770.729025 0.1089 0.1186 0.1310 0.1424 0.1502 0.1659 0.1816 0.1958 0.2162 
1779.409069 0.2394 0.2668 0.3035 0.3360 0.3740 0.4202 0.4821 0.5388 0.5910 
1788.089113 0.6497 0.7031 0.7488 0.7887 0.8196 0.8296 0.8211 0.8001 0.7676 
1796.769158 0.7114 0.6558 0.6011 0.5376 0.4761 0.4326 0.3849 0.3475 0.3184 
1805.449202 0.2947 0.2750 0.2611 0.2481 0.2397 0.2344 0.2313 0.2287 0.2287 
1814.129246 0.2292 0.2321 0.2343 0.2378 0.2383 0.2368 0.2329 0.2284 0.2224 
1822.809290 0.2167 0.2089 0.2055 0.1993 0.1909 0.1854 0.1839 0.1847 0.1847 
1831.489335 0.1819 0.1835 0.1870 0.1903 0.1937 0.1996 0.2056 0.2089 0.2098 
1840.169379 0.2106 0.2092 0.2064 0.1996 0.1910 0.1730 0.1577 0.1433 0.1296 
1848.849423 0.1138 0.0999 0.0883 0.0793 0.0710 0.0643 0.0581 0.0534 0.0488 
1857.529467 0.0459 0.0434 0.0406 0.0379 0.0367 0.0339 0.0318 0.0303 0.0294 
1866.209512 0.0293 0.0297 0.0303 0.0308 0.0289 0.0265 0.0236 0.0223 0.0216 
1874.889556 0.0213 0.0207 0.0204 0.0198 0.0201 0.0199 0.0190 0.0183 0.0181 
1883.569600 0.0179 0.0183 0.0180 0.0173 0.0168 0.0173 0.0197 0.0194 0.0167 
1892.249644 0.0163 0.0161 0.0169 0.0182 0.0175 0.0159 0.0159 0.0155 0.0155 
1900.929689 0.0155 0.0159 0.0154 0.0154 0.0153 0.0153 0.0155 0.0169 0.0171 
1909.609733 0.0178 0.0177 0.0162 0.0158 0.0162 0.0166 0.0170 0.0172 0.0189 
1918.289777 0.0213 0.0200 0.0188 0.0198 0.0228 0.0243 0.0228 0.0210 0.0210 
1926.969821 0.0214 0.0215 0.0216 0.0214 0.0212 0.0208 0.0207 0.0197 0.0185 
1935.649866 0.0174 0.0164 0.0154 0.0146 0.0137 0.0131 0.0131 0.0144 0.0130 
1944.329910 0.0110 0.0105 0.0103 0.0097 0.0092 0.0089 0.0088 0.0085 0.0083 
1953.009954 0.0082 0.0084 0.0087 0.0085 0.0084 0.0095 0.0094 0.0089 0.0080 
1961.689998 0.0078 0.0074 0.0073 0.0073 0.0080 0.0097 0.0107 0.0088 0.0073 
1970.370042 0.0071 0.0071 0.0070 0.0070 0.0069 0.0070 0.0069 0.0069 0.0069 
1979.050087 0.0069 0.0068 0.0069 0.0069 0.0068 0.0067 0.0067 0.0067 0.0069 
1987.730131 0.0080 0.0089 0.0075 0.0073 0.0099 0.0109 0.0085 0.0071 0.0069 
1996.410175 0.0070 0.0070 0.0070 0.0070 0.0071 0.0070 0.0071 0.0070 0.0071 
2005.090219 0.0070 0.0071 0.0071 0.0072 0.0071 0.0071 0.0071 0.0072 0.0072 
2013.770264 0.0073 0.0072 0.0075 0.0079 0.0081 0.0078 0.0077 0.0074 0.0074 
2022.450308 0.0075 0.0075 0.0074 0.0073 0.0073 0.0074 0.0072 0.0071 0.0070 
2031.130352 0.0070 0.0069 0.0068 0.0066 0.0065 0.0063 0.0062 0.0060 0.0059 
2039.810396 0.0058 0.0060 0.0060 0.0056 0.0054 0.0053 0.0052 0.0051 0.0050 
2048.490441 0.0050 0.0049 0.0049 0.0048 0.0048 0.0047 0.0048 0.0047 0.0047 
2057.170485 0.0047 0.0047 0.0047 0.0048 0.0048 0.0048 0.0048 0.0050 0.0054 
2065.850529 0.0054 0.0050 0.0051 0.0051 0.0051 0.0051 0.0052 0.0053 0.0054 
2074.530573 0.0053 0.0054 0.0054 0.0055 0.0054 0.0055 0.0054 0.0055 0.0055 
2083.210618 0.0054 0.0054 0.0054 0.0054 0.0055 0.0053 0.0053 0.0055 0.0055 
2091.890662 0.0052 0.0052 0.0052 0.0053 0.0052 0.0051 0.0051 0.0053 0.0053 
2100.570706 0.0052 0.0051 0.0053 0.0053 0.0052 0.0052 0.0053 0.0053 0.0053 
2109.250750 0.0051 0.0052 0.0052 0.0052 0.0051 0.0052 0.0053 0.0053 0.0051 
2117.930795 0.0051 0.0051 0.0053 0.0051 0.0051 0.0052 0.0053 0.0052 0.0052 
2126.610839 0.0052 0.0053 0.0052 0.0052 0.0052 0.0053 0.0053 0.0053 0.0053 
2135.290883 0.0054 0.0054 0.0053 0.0053 0.0053 0.0053 0.0053 0.0052 0.0053 
2143.970927 0.0052 0.0052 0.0053 0.0053 0.0053 0.0053 0.0053 0.0053 0.0053 
2152.650972 0.0053 0.0053 0.0054 0.0053 0.0053 0.0053 0.0054 0.0053 0.0054 
2161.331016 0.0055 0.0057 0.0055 0.0055 0.0056 0.0057 0.0056 0.0057 0.0058 
2170.011060 0.0058 0.0056 0.0058 0.0059 0.0059 0.0058 0.0060 0.0060 0.0059 
2178.691104 0.0059 0.0062 0.0062 0.0062 0.0063 0.0065 0.0064 0.0065 0.0068 
2187.371148 0.0069 0.0068 0.0069 0.0070 0.0070 0.0069 0.0070 0.0068 0.0066 
2196.051193 0.0066 0.0066 0.0064 0.0064 0.0064 0.0062 0.0061 0.0061 0.0061 
2204.731237 0.0060 0.0060 0.0060 0.0060 0.0060 0.0060 0.0060 0.0060 0.0060 
2213.411281 0.0060 0.0060 0.0061 0.0061 0.0062 0.0062 0.0063 0.0064 0.0064 
2222.091325 0.0065 0.0066 0.0068 0.0068 0.0070 0.0070 0.0071 0.0072 0.0073 
2230.771370 0.0073 0.0073 0.0073 0.0072 0.0072 0.0071 0.0070 0.0069 0.0067 
2239.451414 0.0067 0.0066 0.0066 0.0065 0.0064 0.0064 0.0064 0.0063 0.0062 
2248.131458 0.0060 0.0060 0.0059 0.0059 0.0058 0.0057 0.0056 0.0056 0.0056 
2256.811502 0.0056 0.0055 0.0055 0.0054 0.0054 0.0054 0.0053 0.0053 0.0052 
2265.491547 0.0052 0.0052 0.0052 0.0051 0.0051 0.0051 0.0051 0.0051 0.0051 
2274.171591 0.0051 0.0052 0.0052 0.0052 0.0053 0.0054 0.0054 0.0055 0.0056 
2282.851635 0.0057 0.0057 0.0057 0.0057 0.0057 0.0056 0.0056 0.0056 0.0056 
2291.531679 0.0056 0.0056 0.0056 0.0056 0.0056 0.0058 0.0058 0.0059 0.0059 
2300.211724 0.0059 0.0060 0.0059 0.0060 0.0059 0.0059 0.0059 0.0056 0.0057 
2308.891768 0.0052 0.0053 0.0047 0.0047 0.0041 0.0041 0.0037 0.0035 0.0031 
2317.571812 0.0027 0.0023 0.0016 0.0012 0.0006 0.0003 0.0010 0.0010 0.0010 
2326.251856 0.0010 0.0010 0.0010 0.0010 0.0010 0.0010 0.0010 0.0010 0.0010 
2334.931901 0.0010 0.0010 0.0010 0.0010 0.0010 0.0010 0.0010 0.0010 0.0010 
2343.611945 0.0010 0.0010 0.0010 0.0010 0.0010 0.0022 0.0022 0.0001 0.0010 
2352.291989 0.0010 0.0010 0.0010 0.0010 0.0010 0.0010 0.0010 0.0010 0.0010 
2360.972033 0.0010 0.0010 0.0010 0.0010 0.0010 0.0010 0.0010 0.0010 0.0010 
2369.652078 0.0010 0.0010 0.0010 0.0010 0.0010 0.0012 0.0022 0.0033 0.0042 
2378.332122 0.0052 0.0060 0.0067 0.0071 0.0075 0.0078 0.0080 0.0081 0.0082 
2387.012166 0.0082 0.0082 0.0082 0.0083 0.0084 0.0084 0.0085 0.0086 0.0087 
2395.692210 0.0088 0.0089 0.0091 0.0092 0.0093 0.0094 0.0095 0.0095 0.0096 
2404.372254 0.0097 0.0097 0.0098 0.0098 0.0098 0.0099 0.0100 0.0100 0.0101 
2413.052299 0.0102 0.0103 0.0104 0.0105 0.0106 0.0107 0.0107 0.0108 0.0109 
2421.732343 0.0110 0.0111 0.0111 0.0112 0.0112 0.0112 0.0112 0.0112 0.0112 
2430.412387 0.0112 0.0112 0.0112 0.0112 0.0112 0.0112 0.0113 0.0113 0.0114 
2439.092431 0.0114 0.0115 0.0116 0.0117 0.0117 0.0118 0.0119 0.0121 0.0122 
2447.772476 0.0123 0.0123 0.0124 0.0125 0.0126 0.0127 0.0129 0.0130 0.0131 
2456.452520 0.0132 0.0133 0.0134 0.0135 0.0135 0.0135 0.0135 0.0134 0.0133 
2465.132564 0.0132 0.0131 0.0130 0.0129 0.0129 0.0128 0.0127 0.0127 0.0128 
2473.812608 0.0128 0.0128 0.0128 0.0129 0.0129 0.0130 0.0130 0.0131 0.0132 
2482.492653 0.0133 0.0134 0.0134 0.0135 0.0136 0.0137 0.0138 0.0139 0.0140 
2491.172697 0.0141 0.0142 0.0143 0.0144 0.0146 0.0147 0.0148 0.0150 0.0151 
2499.852741 0.0152 0.0154 0.0156 0.0158 0.0159 0.0161 0.0163 0.0165 0.0167 
2508.532785 0.0168 0.0170 0.0172 0.0174 0.0175 0.0178 0.0180 0.0182 0.0184 
2517.212830 0.0185 0.0188 0.0191 0.0193 0.0195 0.0197 0.0199 0.0201 0.0204 
2525.892874 0.0206 0.0208 0.0210 0.0212 0.0214 0.0217 0.0219 0.0221 0.0224 
2534.572918 0.0226 0.0229 0.0232 0.0235 0.0238 0.0241 0.0244 0.0247 0.0251 
2543.252962 0.0254 0.0257 0.0260 0.0263 0.0267 0.0270 0.0273 0.0276 0.0279 
2551.933007 0.0281 0.0283 0.0286 0.0288 0.0289 0.0290 0.0292 0.0292 0.0293 
2560.613051 0.0293 0.0293 0.0293 0.0292 0.0291 0.0290 0.0288 0.0286 0.0284 
2569.293095 0.0283 0.0281 0.0279 0.0277 0.0276 0.0274 0.0272 0.0269 0.0268 
2577.973139 0.0266 0.0264 0.0262 0.0261 0.0260 0.0259 0.0258 0.0257 0.0256 
2586.653184 0.0256 0.0255 0.0255 0.0255 0.0255 0.0255 0.0255 0.0255 0.0256 
2595.333228 0.0257 0.0258 0.0258 0.0260 0.0260 0.0261 0.0263 0.0264 0.0265 
2604.013272 0.0265 0.0266 0.0266 0.0267 0.0268 0.0268 0.0270 0.0271 0.0272 
2612.693316 0.0273 0.0276 0.0278 0.0281 0.0283 0.0286 0.0290 0.0294 0.0298 
2621.373360 0.0301 0.0305 0.0310 0.0315 0.0319 0.0325 0.0329 0.0334 0.0339 
2630.053405 0.0343 0.0348 0.0352 0.0356 0.0360 0.0363 0.0366 0.0368 0.0369 
2638.733449 0.0371 0.0372 0.0373 0.0373 0.0373 0.0373 0.0374 0.0374 0.0373 
2647.413493 0.0374 0.0374 0.0375 0.0375 0.0376 0.0376 0.0377 0.0377 0.0377 
2656.093537 0.0378 0.0378 0.0379 0.0379 0.0378 0.0378 0.0378 0.0379 0.0378 
2664.773582 0.0377 0.0376 0.0375 0.0374 0.0373 0.0371 0.0369 0.0368 0.0367 
2673.453626 0.0365 0.0363 0.0362 0.0362 0.0361 0.0361 0.0361 0.0361 0.0360 
2682.133670 0.0358 0.0358 0.0358 0.0358 0.0357 0.0357 0.0356 0.0355 0.0355 
2690.813714 0.0354 0.0353 0.0352 0.0351 0.0349 0.0348 0.0347 0.0345 0.0343 
2699.493759 0.0340 0.0338 0.0336 0.0334 0.0332 0.0330 0.0329 0.0328 0.0328 
2708.173803 0.0327 0.0326 0.0326 0.0325 0.0325 0.0326 0.0325 0.0325 0.0325 
2716.853847 0.0326 0.0327 0.0328 0.0329 0.0330 0.0332 0.0333 0.0334 0.0336 
2725.533891 0.0339 0.0340 0.0342 0.0344 0.0346 0.0348 0.0350 0.0353 0.0355 
2734.213936 0.0357 0.0360 0.0363 0.0364 0.0366 0.0368 0.0369 0.0371 0.0373 
2742.893980 0.0375 0.0376 0.0378 0.0379 0.0380 0.0380 0.0380 0.0378 0.0376 
2751.574024 0.0374 0.0372 0.0370 0.0369 0.0367 0.0366 0.0365 0.0365 0.0364 
2760.254068 0.0363 0.0363 0.0363 0.0362 0.0362 0.0361 0.0361 0.0361 0.0360 
2768.934113 0.0359 0.0359 0.0358 0.0358 0.0357 0.0357 0.0357 0.0356 0.0355 
2777.614157 0.0355 0.0355 0.0356 0.0356 0.0357 0.0358 0.0359 0.0359 0.0360 
2786.294201 0.0361 0.0362 0.0363 0.0364 0.0364 0.0365 0.0366 0.0367 0.0368 
2794.974245 0.0369 0.0370 0.0371 0.0373 0.0374 0.0376 0.0379 0.0381 0.0383 
2803.654290 0.0385 0.0388 0.0390 0.0392 0.0394 0.0395 0.0396 0.0397 0.0397 
2812.334334 0.0398 0.0399 0.0400 0.0402 0.0403 0.0406 0.0408 0.0411 0.0413 
2821.014378 0.0416 0.0418 0.0421 0.0423 0.0425 0.0428 0.0431 0.0435 0.0439 
2829.694422 0.0442 0.0445 0.0449 0.0452 0.0454 0.0457 0.0460 0.0464 0.0468 
2838.374466 0.0472 0.0475 0.0478 0.0480 0.0481 0.0482 0.0483 0.0485 0.0487 
2847.054511 0.0489 0.0491 0.0492 0.0495 0.0497 0.0500 0.0503 0.0507 0.0511 
2855.734555 0.0515 0.0519 0.0523 0.0527 0.0533 0.0537 0.0541 0.0547 0.0553 
2864.414599 0.0560 0.0567 0.0575 0.0585 0.0595 0.0606 0.0617 0.0628 0.0641 
2873.094643 0.0656 0.0672 0.0691 0.0712 0.0734 0.0758 0.0783 0.0807 0.0828 
2881.774688 0.0845 0.0856 0.0861 0.0861 0.0855 0.0845 0.0834 0.0823 0.0811 
2890.454732 0.0801 0.0791 0.0783 0.0777 0.0772 0.0768 0.0765 0.0762 0.0762 
2899.134776 0.0763 0.0765 0.0769 0.0775 0.0783 0.0790 0.0797 0.0802 0.0806 
2907.814820 0.0810 0.0814 0.0819 0.0825 0.0834 0.0845 0.0857 0.0871 0.0885 
2916.494865 0.0899 0.0912 0.0924 0.0935 0.0944 0.0951 0.0956 0.0960 0.0962 
2925.174909 0.0963 0.0963 0.0963 0.0964 0.0966 0.0967 0.0968 0.0971 0.0977 
2933.854953 0.0985 0.0996 0.1010 0.1029 0.1053 0.1084 0.1123 0.1172 0.1231 
2942.534997 0.1298 0.1369 0.1434 0.1475 0.1479 0.1442 0.1374 0.1290 0.1210 
2951.215042 0.1140 0.1082 0.1036 0.1003 0.0978 0.0960 0.0948 0.0940 0.0935 
2959.895086 0.0933 0.0932 0.0935 0.0940 0.0945 0.0951 0.0958 0.0968 0.0977 
2968.575130 0.0988 0.1001 0.1015 0.1032 0.1052 0.1075 0.1101 0.1131 0.1165 
2977.255174 0.1203 0.1247 0.1297 0.1352 0.1411 0.1472 0.1537 0.1601 0.1663 
2985.935219 0.1719 0.1766 0.1800 0.1818 0.1815 0.1795 0.1755 0.1703 0.1642 
2994.615263 0.1575 0.1502 0.1429 0.1358 0.1290 0.1225 0.1166 0.1113 0.1066 
3003.295307 0.1023 0.0986 0.0954 0.0926 0.0901 0.0880 0.0862 0.0846 0.0831 
3011.975351 0.0819 0.0810 0.0800 0.0791 0.0783 0.0776 0.0769 0.0763 0.0758 
3020.655396 0.0753 0.0749 0.0744 0.0740 0.0736 0.0733 0.0730 0.0727 0.0724 
3029.335440 0.0720 0.0717 0.0715 0.0713 0.0711 0.0708 0.0707 0.0705 0.0703 
3038.015484 0.0701 0.0700 0.0698 0.0697 0.0695 0.0694 0.0692 0.0691 0.0689 
3046.695528 0.0688 0.0686 0.0685 0.0684 0.0681 0.0679 0.0678 0.0676 0.0672 
3055.375572 0.0670 0.0668 0.0666 0.0662 0.0659 0.0658 0.0656 0.0654 0.0651 
3064.055617 0.0649 0.0647 0.0645 0.0643 0.0641 0.0639 0.0638 0.0637 0.0635 
3072.735661 0.0635 0.0633 0.0631 0.0630 0.0628 0.0627 0.0627 0.0626 0.0625 
3081.415705 0.0625 0.0624 0.0623 0.0622 0.0620 0.0619 0.0619 0.0617 0.0616 
3090.095749 0.0615 0.0614 0.0612 0.0611 0.0609 0.0607 0.0606 0.0605 0.0604 
3098.775794 0.0601 0.0599 0.0598 0.0596 0.0595 0.0593 0.0590 0.0588 0.0587 
3107.455838 0.0586 0.0584 0.0580 0.0578 0.0576 0.0575 0.0573 0.0571 0.0569 
3116.135882 0.0568 0.0565 0.0563 0.0562 0.0559 0.0557 0.0555 0.0554 0.0552 
3124.815926 0.0550 0.0548 0.0545 0.0543 0.0541 0.0539 0.0535 0.0532 0.0530 
3133.495971 0.0528 0.0526 0.0524 0.0521 0.0518 0.0515 0.0513 0.0509 0.0506 
3142.176015 0.0503 0.0501 0.0498 0.0495 0.0491 0.0488 0.0485 0.0483 0.0480 
3150.856059 0.0478 0.0475 0.0471 0.0468 0.0465 0.0463 0.0461 0.0458 0.0455 
3159.536103 0.0453 0.0451 0.0448 0.0447 0.0444 0.0442 0.0439 0.0436 0.0434 
3168.216148 0.0433 0.0431 0.0428 0.0426 0.0424 0.0422 0.0420 0.0418 0.0415 
3176.896192 0.0413 0.0411 0.0409 0.0407 0.0406 0.0404 0.0402 0.0399 0.0396 
3185.576236 0.0394 0.0392 0.0391 0.0389 0.0385 0.0383 0.0381 0.0380 0.0378 
3194.256280 0.0376 0.0375 0.0372 0.0369 0.0367 0.0366 0.0364 0.0361 0.0358 
3202.936325 0.0356 0.0354 0.0351 0.0348 0.0344 0.0342 0.0341 0.0339 0.0336 
3211.616369 0.0333 0.0330 0.0327 0.0324 0.0322 0.0319 0.0317 0.0314 0.0311 
3220.296413 0.0309 0.0306 0.0303 0.0300 0.0299 0.0297 0.0294 0.0292 0.0290 
3228.976457 0.0287 0.0284 0.0282 0.0279 0.0277 0.0273 0.0270 0.0266 0.0265 
3237.656502 0.0263 0.0261 0.0258 0.0256 0.0253 0.0250 0.0248 0.0246 0.0245 
3246.336546 0.0243 0.0240 0.0238 0.0235 0.0233 0.0230 0.0228 0.0227 0.0226 
3255.016590 0.0224 0.0221 0.0219 0.0217 0.0215 0.0213 0.0212 0.0209 0.0207 
3263.696634 0.0206 0.0204 0.0202 0.0201 0.0199 0.0198 0.0197 0.0195 0.0193 
3272.376678 0.0190 0.0188 0.0187 0.0185 0.0184 0.0182 0.0179 0.0178 0.0176 
3281.056723 0.0174 0.0172 0.0172 0.0170 0.0167 0.0165 0.0164 0.0163 0.0161 
3289.736767 0.0159 0.0158 0.0158 0.0156 0.0154 0.0152 0.0150 0.0148 0.0147 
3298.416811 0.0145 0.0143 0.0141 0.0139 0.0138 0.0137 0.0136 0.0134 0.0132 
3307.096855 0.0130 0.0130 0.0129 0.0126 0.0124 0.0122 0.0120 0.0119 0.0118 
3315.776900 0.0115 0.0113 0.0111 0.0110 0.0108 0.0107 0.0106 0.0105 0.0104 
3324.456944 0.0104 0.0102 0.0100 0.0100 0.0098 0.0096 0.0094 0.0092 0.0090 
3333.136988 0.0090 0.0090 0.0090 0.0090 0.0091 0.0090 0.0086 0.0083 0.0083 
3341.817032 0.0083 0.0082 0.0081 0.0080 0.0078 0.0078 0.0077 0.0077 0.0077 
3350.497077 0.0077 0.0075 0.0073 0.0072 0.0072 0.0073 0.0073 0.0072 0.0070 
3359.177121 0.0069 0.0069 0.0069 0.0069 0.0067 0.0066 0.0066 0.0066 0.0066 
3367.857165 0.0066 0.0066 0.0064 0.0061 0.0059 0.0057 0.0056 0.0056 0.0056 
3376.537209 0.0055 0.0054 0.0053 0.0052 0.0051 0.0049 0.0048 0.0048 0.0047 
3385.217254 0.0046 0.0044 0.0044 0.0044 0.0044 0.0044 0.0045 0.0045 0.0046 
3393.897298 0.0044 0.0040 0.0038 0.0040 0.0041 0.0040 0.0039 0.0039 0.0038 
3402.577342 0.0036 0.0034 0.0033 0.0033 0.0032 0.0032 0.0032 0.0031 0.0029 
3411.257386 0.0029 0.0030 0.0030 0.0028 0.0024 0.0022 0.0021 0.0021 0.0023 
3419.937431 0.0025 0.0024 0.0021 0.0019 0.0017 0.0015 0.0015 0.0017 0.0018 
3428.617475 0.0018 0.0019 0.0017 0.0015 0.0014 0.0017 0.0019 0.0018 0.0018 
3437.297519 0.0017 0.0013 0.0010 0.0008 0.0007 0.0008 0.0009 0.0007 0.0008 
3445.977563 0.0009 0.0012 0.0012 0.0008 0.0006 0.0005 0.0005 0.0006 0.0005 
3454.657608 0.0005 0.0006 0.0006 0.0006 0.0008 0.0009 0.0008 0.0007 0.0008 
3463.337652 0.0009 0.0008 0.0009 0.0010 0.0012 0.0010 0.0008 0.0008 0.0007 
3472.017696 0.0006 0.0006 0.0007 0.0008 0.0007 0.0007 0.0007 0.0008 0.0011 
3480.697740 0.0014 0.0012 0.0011 0.0010 0.0009 0.0011 0.0011 0.0011 0.0013 
3489.377784 0.0010 0.0008 0.0010 0.0009 0.0009 0.0010 0.0011 0.0012 0.0012 
3498.057829 0.0010 0.0009 0.0012 0.0017 0.0024 0.0026 0.0021 0.0016 0.0012 
3506.737873 0.0010 0.0010 0.0013 0.0019 0.0018 0.0014 0.0013 0.0013 0.0013 
3515.417917 0.0013 0.0014 0.0015 0.0016 0.0016 0.0017 0.0017 0.0023 0.0036 
3524.097961 0.0042 0.0037 0.0032 0.0032 0.0034 0.0034 0.0035 0.0036 0.0037 
3532.778006 0.0036 0.0037 0.0040 0.0048 0.0054 0.0049 0.0042 0.0042 0.0043 
3541.458050 0.0044 0.0049 0.0061 0.0078 0.0093 0.0092 0.0087 0.0072 0.0052 
3550.138094 0.0050 0.0056 0.0073 0.0079 0.0074 0.0059 0.0048 0.0050 0.0053 
3558.818138 0.0058 0.0076 0.0084 0.0071 0.0066 0.0066 0.0076 0.0101 0.0131 
3567.498183 0.0128 0.0117 0.0087 0.0062 0.0050 0.0038 0.0035 0.0036 0.0035 
3576.178227 0.0032 0.0036 0.0033 0.0035 0.0050 0.0049 0.0037 0.0037 0.0043 
3584.858271 0.0048 0.0067 0.0097 0.0101 0.0092 0.0069 0.0035 0.0028 0.0038 
3593.538315 0.0057 0.0055 0.0068 0.0064 0.0040 0.0045 0.0049 0.0043 0.0049 
3602.218360 0.0048 0.0044 0.0034 0.0030 0.0039 0.0075 0.0078 0.0078 0.0080 
3610.898404 0.0048 0.0049 0.0080 0.0076 0.0070 0.0054 0.0030 0.0050 0.0061 
3619.578448 0.0063 0.0060 0.0033 0.0010 0.0001 0.0010 0.0002 0.0014 0.0013 
3628.258492 0.0038 0.0088 0.0071 0.0027 0.0002 0.0003 0.0021 0.0010 0.0010 
3636.938537 0.0010 0.0010 0.0010 0.0010 0.0010 0.0004 0.0011 0.0010 0.0010 
3645.618581 0.0010 0.0022 0.0057 0.0051 0.0059 0.0071 0.0059 0.0020 0.0010 
3654.298625 0.0010 0.0010 0.0016 0.0022 0.0010 0.0010 0.0010 0.0010 0.0010 
3662.978669 0.0010 0.0010 0.0010 0.0010 0.0010 0.0010 0.0001 0.0017 0.0034 
3671.658714 0.0025 0.0010 0.0010 0.0001 0.0037 0.0048 0.0021 0.0010 0.0010 
3680.338758 0.0000 0.0010 0.0010 0.0010 0.0010 0.0010 0.0010 0.0010 0.0005 
3689.018802 0.0024 0.0002 0.0009 0.0016 0.0010 0.0010 0.0010 0.0010 0.0010 
3697.698846 0.0010 0.0010 0.0010 0.0010 0.0003 0.0013 0.0010 0.0010 0.0010 
3706.378890 0.0010 0.0010 0.0010 0.0010 0.0013 0.0012 0.0038 0.0042 0.0018 
3715.058935 0.0017 0.0004 0.0010 0.0010 0.0009 0.0011 0.0010 0.0012 0.0045 
3723.738979 0.0033 0.0028 0.0039 0.0044 0.0035 0.0007 0.0010 0.0010 0.0010 
3732.419023 0.0007 0.0014 0.0055 0.0107 0.0097 0.0065 0.0028 0.0017 0.0009 
3741.099067 0.0022 0.0014 0.0010 0.0024 0.0104 0.0050 0.0015 0.0003 0.0003 
3749.779112 0.0028 0.0020 0.0018 0.0051 0.0027 0.0010 0.0010 0.0010 0.0002 
3758.459156 0.0010 0.0014 0.0009 0.0010 0.0010 0.0010 0.0010 0.0010 0.0007 
3767.139200 0.0010 0.0010 0.0010 0.0012 0.0007 0.0010 0.0010 0.0010 0.0010 
3775.819244 0.0010 0.0010 0.0010 0.0010 0.0001 0.0010 0.0010 0.0010 0.0010 
3784.499289 0.0010 0.0001 0.0010 0.0010 0.0010 0.0010 0.0010 0.0010 0.0010 
3793.179333 0.0010 0.0010 0.0010 0.0010 0.0006 0.0006 0.0010 0.0010 0.0010 
3801.859377 0.0017 0.0013 0.0010 0.0010 0.0010 0.0010 0.0004 0.0010 0.0010 
3810.539421 0.0010 0.0010 0.0010 0.0010 0.0010 0.0010 0.0012 0.0006 0.0010 
3819.219466 0.0010 0.0010 0.0026 0.0030 0.0008 0.0010 0.0010 0.0010 0.0000 
3827.899510 0.0001 0.0010 0.0010 0.0010 0.0010 0.0010 0.0010 0.0010 0.0008 
3836.579554 0.0010 0.0005 0.0030 0.0024 0.0035 0.0030 0.0001 0.0005 0.0026 
3845.259598 0.0004 0.0010 0.0010 0.0010 0.0010 0.0003 0.0010 0.0010 0.0035 
3853.939643 0.0055 0.0065 0.0016 0.0018 0.0029 0.0010 0.0010 0.0010 0.0006 
3862.619687 0.0016 0.0010 0.0020 0.0048 0.0015 0.0010 0.0010 0.0022 0.0073 
3871.299731 0.0048 0.0010 0.0010 0.0030 0.0021 0.0010 0.0010 0.0010 0.0010 
3879.979775 0.0016 0.0045 0.0017 0.0001 0.0007 0.0007 0.0036 0.0029 0.0010 
3888.659820 0.0010 0.0010 0.0010 0.0028 0.0018 0.0010 0.0001 0.0010 0.0010 
3897.339864 0.0010 0.0007 0.0034 0.0032 0.0024 0.0047 0.0039 0.0038 0.0042 
3906.019908 0.0027 0.0006 0.0010 0.0010 0.0010 0.0010 0.0010 0.0010 0.0010 
3914.699952 0.0010 0.0010 0.0022 0.0030 0.0007 0.0002 0.0014 0.0010 0.0010 
3923.379996 0.0006 0.0022 0.0023 0.0002 0.0010 0.0010 0.0010 0.0006 0.0013 
3932.060041 0.0023 0.0026 0.0012 0.0010 0.0010 0.0010 0.0010 0.0010 0.0010 
3940.740085 0.0010 0.0002 0.0027 0.0027 0.0008 0.0010 0.0010 0.0017 0.0021 
3949.420129 0.0017 0.0017 0.0010 0.0010 0.0010 0.0010 0.0010 0.0010 0.0010 
3958.100173 0.0010 0.0010 0.0010 0.0010 0.0010 0.0010 0.0010 0.0010 0.0010 
3966.780218 0.0010 0.0010 0.0010 0.0010 0.0010 0.0010 0.0010 0.0010 0.0010 
3975.460262 0.0010 0.0010 0.0010 0.0010 0.0010 0.0010 0.0010 0.0010 0.0010 
3984.140306 0.0010 0.0010 0.0010 0.0010 0.0010 0.0010 0.0010 0.0010 0.0010 
3992.820350 0.0010 0.0010 0.0010 0.0010 0.0010 0.0010 0.0010 0.0010 0.0010 
##END=
