##JCAMP-DX=5.01
##FILENAME=KAM-10.jdx
##XUNITS=1/CM
##YUNITS=ABSORBANCE
##FIRSTX=399.282035
##LASTX=4000.535945
##MAXX=4000.535945
##MINX=399.282035
##FIRSTY=0.0010
##LASTY=0.0157
##MAXY=2.2732
##MINY=0.0002
##NPOINTS=3735
##XFACTOR=1
##YFACTOR=1
##XYDATA=(X++(Y..Y))
399.282035 0.0010 0.0010 0.0010 0.0010 0.0010 0.0002 0.0010 0.0010 0.0009 0.0011 
408.926529 0.0035 0.0069 0.0066 0.0066 0.0069 0.0052 0.0033 0.0037 0.0051 0.0063 
418.571022 0.0024 0.0003 0.0047 0.0094 0.0104 0.0093 0.0105 0.0088 0.0073 0.0079 
428.215516 0.0078 0.0067 0.0054 0.0058 0.0065 0.0065 0.0053 0.0052 0.0068 0.0065 
437.860009 0.0062 0.0061 0.0061 0.0086 0.0093 0.0090 0.0065 0.0043 0.0054 0.0055 
447.504503 0.0061 0.0077 0.0071 0.0051 0.0058 0.0085 0.0090 0.0099 0.0116 0.0127 
457.148997 0.0121 0.0145 0.0176 0.0174 0.0173 0.0188 0.0202 0.0205 0.0214 0.0226 
466.793490 0.0245 0.0255 0.0271 0.0282 0.0293 0.0301 0.0303 0.0318 0.0323 0.0330 
476.437984 0.0341 0.0336 0.0331 0.0337 0.0350 0.0365 0.0366 0.0360 0.0368 0.0382 
486.082477 0.0392 0.0396 0.0398 0.0392 0.0390 0.0390 0.0382 0.0373 0.0364 0.0358 
495.726971 0.0351 0.0347 0.0342 0.0337 0.0333 0.0330 0.0327 0.0326 0.0321 0.0313 
505.371465 0.0312 0.0306 0.0305 0.0302 0.0298 0.0291 0.0280 0.0278 0.0272 0.0264 
515.015958 0.0262 0.0255 0.0249 0.0247 0.0243 0.0242 0.0234 0.0219 0.0212 0.0212 
524.660452 0.0209 0.0199 0.0188 0.0185 0.0198 0.0201 0.0190 0.0189 0.0177 0.0158 
534.304945 0.0158 0.0164 0.0156 0.0148 0.0153 0.0152 0.0148 0.0146 0.0145 0.0143 
543.949439 0.0138 0.0140 0.0140 0.0138 0.0137 0.0133 0.0132 0.0136 0.0136 0.0134 
553.593933 0.0133 0.0132 0.0128 0.0127 0.0131 0.0132 0.0131 0.0130 0.0131 0.0132 
563.238426 0.0136 0.0137 0.0133 0.0132 0.0132 0.0134 0.0138 0.0140 0.0141 0.0145 
572.882920 0.0147 0.0147 0.0149 0.0154 0.0158 0.0160 0.0162 0.0167 0.0176 0.0182 
582.527413 0.0183 0.0187 0.0197 0.0204 0.0208 0.0211 0.0217 0.0226 0.0233 0.0244 
592.171907 0.0253 0.0259 0.0269 0.0279 0.0288 0.0298 0.0311 0.0323 0.0335 0.0344 
601.816401 0.0351 0.0356 0.0361 0.0363 0.0364 0.0361 0.0355 0.0348 0.0340 0.0333 
611.460894 0.0325 0.0318 0.0313 0.0312 0.0312 0.0312 0.0310 0.0311 0.0315 0.0320 
621.105388 0.0328 0.0335 0.0341 0.0348 0.0357 0.0366 0.0373 0.0379 0.0384 0.0389 
630.749881 0.0395 0.0401 0.0409 0.0413 0.0412 0.0408 0.0401 0.0395 0.0386 0.0381 
640.394375 0.0372 0.0362 0.0357 0.0353 0.0347 0.0343 0.0342 0.0337 0.0334 0.0336 
650.038869 0.0010 0.0010 0.0010 0.0010 0.0010 0.0010 0.0010 0.0010 0.0010 0.0010 
659.683362 0.0010 0.0010 0.0010 0.0010 0.0010 0.0010 0.0010 0.0010 0.0010 0.0010 
669.327856 0.0010 0.0010 0.0010 0.0010 0.0010 0.0010 0.0010 0.0010 0.0010 0.0010 
678.972349 0.0010 0.0010 0.0010 0.0010 0.0010 0.0010 0.0010 0.0010 0.0010 0.0010 
688.616843 0.0010 0.0010 0.0010 0.0010 0.0010 0.0010 0.0010 0.0010 0.0010 0.0010 
698.261337 0.0010 0.0010 0.0010 0.0010 0.0010 0.0010 0.0010 0.0010 0.0010 0.0010 
707.905830 0.0010 0.0010 0.0010 0.0010 0.0010 0.0010 0.0010 0.0010 0.0010 0.0010 
717.550324 0.0010 0.0010 0.0010 0.0010 0.0010 0.0010 0.0010 0.0010 0.0010 0.0010 
727.194817 0.0010 0.0010 0.0010 0.0010 0.0010 0.0010 0.0010 0.0010 0.0010 0.0010 
736.839311 0.0010 0.0010 0.0010 0.0010 0.0010 0.0010 0.0010 0.0010 0.0010 0.0010 
746.483805 0.0010 0.0010 0.0010 0.0010 0.0010 0.0010 0.0010 0.0010 0.0010 0.0010 
756.128298 0.0010 0.0010 0.0010 0.0010 0.0010 0.0010 0.0010 0.0010 0.0010 0.0010 
765.772792 0.0010 0.0010 0.0010 0.0010 0.0010 0.0010 0.0010 0.0010 0.0010 0.0010 
775.417285 0.0010 0.0010 0.0010 0.0010 0.0010 0.0010 0.0010 0.0010 0.0010 0.0010 
785.061779 0.0010 0.0010 0.0010 0.0010 0.0010 0.0010 0.0010 0.0010 0.0010 0.0010 
794.706273 0.0010 0.0010 0.0010 0.0010 0.0010 0.0010 0.0010 0.0010 0.0010 0.0010 
804.350766 0.0010 0.0010 0.0010 0.0010 0.0010 0.0010 0.0010 0.0010 0.0010 0.0010 
813.995260 0.0010 0.0010 0.0010 0.0010 0.0010 0.0010 0.0010 0.0010 0.0010 0.0010 
823.639753 0.0010 0.0010 0.0010 0.0010 0.0010 0.0010 0.0010 0.0010 0.0010 0.0010 
833.284247 0.0010 0.0010 0.0010 0.0010 0.0010 0.0010 0.0010 0.0010 0.0010 0.0010 
842.928741 0.0010 0.0010 0.0010 0.0010 0.0010 0.0010 0.0010 0.0010 0.0010 0.0010 
852.573234 0.0010 0.0010 0.0010 0.0010 0.0010 0.0010 0.0010 0.0010 0.0471 0.0481 
862.217728 0.0492 0.0503 0.0513 0.0524 0.0534 0.0544 0.0555 0.0564 0.0573 0.0584 
871.862221 0.0597 0.0608 0.0620 0.0632 0.0643 0.0655 0.0666 0.0677 0.0689 0.0700 
881.506715 0.0709 0.0719 0.0731 0.0743 0.0755 0.0767 0.0780 0.0793 0.0808 0.0823 
891.151209 0.0840 0.0859 0.0879 0.0899 0.0920 0.0941 0.0963 0.0987 0.1011 0.1035 
900.795702 0.1061 0.1088 0.1118 0.1148 0.1180 0.1213 0.1248 0.1284 0.1320 0.1356 
910.440196 0.1393 0.1430 0.1467 0.1506 0.1546 0.1586 0.1622 0.1655 0.1685 0.1711 
920.084689 0.1735 0.1759 0.1786 0.1814 0.1846 0.1881 0.1919 0.1963 0.2013 0.2068 
929.729183 0.2125 0.2178 0.2224 0.2263 0.2300 0.2340 0.2388 0.2442 0.2503 0.2561 
939.373677 0.2610 0.2637 0.2639 0.2618 0.2580 0.2531 0.2476 0.2416 0.2356 0.2297 
949.018170 0.2237 0.2176 0.2116 0.2055 0.1994 0.1932 0.1870 0.1807 0.1744 0.1679 
958.662664 0.1616 0.1554 0.1493 0.1433 0.1375 0.1318 0.1264 0.1211 0.1161 0.1113 
968.307157 0.1067 0.1024 0.0984 0.0945 0.0906 0.0869 0.0831 0.0796 0.0762 0.0730 
977.951651 0.0701 0.0674 0.0650 0.0625 0.0603 0.0584 0.0566 0.0549 0.0533 0.0518 
987.596145 0.0503 0.0488 0.0473 0.0459 0.0445 0.0432 0.0418 0.0404 0.0393 0.0381 
997.240638 0.0371 0.0362 0.0353 0.0345 0.0337 0.0330 0.0324 0.0319 0.0314 0.0310 
1006.885132 0.0307 0.0305 0.0302 0.0300 0.0298 0.0296 0.0294 0.0291 0.0288 
1015.565176 0.0286 0.0284 0.0283 0.0283 0.0284 0.0284 0.0283 0.0283 0.0282 
1024.245220 0.0280 0.0278 0.0276 0.0274 0.0272 0.0271 0.0270 0.0268 0.0266 
1032.925265 0.0264 0.0263 0.0262 0.0261 0.0261 0.0261 0.0261 0.0261 0.0263 
1041.605309 0.0265 0.0267 0.0269 0.0273 0.0278 0.0283 0.0290 0.0297 0.0306 
1050.285353 0.0316 0.0327 0.0335 0.0341 0.0344 0.0347 0.0350 0.0354 0.0360 
1058.965397 0.0367 0.0374 0.0380 0.0383 0.0385 0.0385 0.0385 0.0385 0.0383 
1067.645442 0.0380 0.0377 0.0374 0.0371 0.0371 0.0373 0.0378 0.0384 0.0392 
1076.325486 0.0401 0.0412 0.0424 0.0437 0.0450 0.0465 0.0481 0.0501 0.0524 
1085.005530 0.0551 0.0582 0.0618 0.0660 0.0708 0.0763 0.0820 0.0878 0.0935 
1093.685574 0.0987 0.1030 0.1062 0.1086 0.1101 0.1109 0.1110 0.1108 0.1102 
1102.365618 0.1097 0.1096 0.1104 0.1123 0.1155 0.1198 0.1243 0.1282 0.1297 
1111.045663 0.1273 0.1200 0.1086 0.0952 0.0822 0.0709 0.0618 0.0546 0.0492 
1119.725707 0.0450 0.0419 0.0395 0.0376 0.0363 0.0352 0.0344 0.0338 0.0334 
1128.405751 0.0331 0.0330 0.0330 0.0330 0.0332 0.0336 0.0341 0.0345 0.0350 
1137.085795 0.0355 0.0361 0.0366 0.0370 0.0375 0.0381 0.0385 0.0390 0.0395 
1145.765840 0.0400 0.0404 0.0409 0.0413 0.0417 0.0422 0.0428 0.0435 0.0444 
1154.445884 0.0453 0.0463 0.0474 0.0485 0.0498 0.0512 0.0526 0.0542 0.0558 
1163.125928 0.0575 0.0593 0.0612 0.0631 0.0652 0.0675 0.0697 0.0720 0.0743 
1171.805972 0.0767 0.0791 0.0812 0.0832 0.0849 0.0862 0.0873 0.0883 0.0893 
1180.486017 0.0907 0.0923 0.0942 0.0964 0.0991 0.1021 0.1054 0.1090 0.1129 
1189.166061 0.1169 0.1210 0.1252 0.1293 0.1333 0.1372 0.1412 0.1451 0.1491 
1197.846105 0.1535 0.1582 0.1633 0.1689 0.1751 0.1817 0.1886 0.1956 0.2029 
1206.526149 0.2102 0.2174 0.2243 0.2308 0.2366 0.2420 0.2467 0.2507 0.2535 
1215.206194 0.2547 0.2543 0.2523 0.2489 0.2449 0.2405 0.2364 0.2329 0.2303 
1223.886238 0.2283 0.2268 0.2253 0.2236 0.2215 0.2187 0.2146 0.2092 0.2022 
1232.566282 0.1940 0.1850 0.1762 0.1679 0.1608 0.1549 0.1505 0.1475 0.1458 
1241.246326 0.1453 0.1462 0.1483 0.1516 0.1563 0.1622 0.1692 0.1774 0.1868 
1249.926371 0.1970 0.2077 0.2188 0.2300 0.2409 0.2509 0.2590 0.2647 0.2676 
1258.606415 0.2680 0.2665 0.2644 0.2627 0.2624 0.2641 0.2679 0.2737 0.2810 
1267.286459 0.2893 0.2981 0.3074 0.3172 0.3276 0.3392 0.3515 0.3641 0.3767 
1275.966503 0.3884 0.3983 0.4054 0.4087 0.4081 0.4033 0.3954 0.3854 0.3745 
1284.646548 0.3634 0.3531 0.3438 0.3355 0.3277 0.3203 0.3129 0.3051 0.2971 
1293.326592 0.2893 0.2819 0.2751 0.2689 0.2632 0.2575 0.2518 0.2456 0.2391 
1302.006636 0.2332 0.2290 0.2268 0.2259 0.2248 0.2226 0.2193 0.2157 0.2117 
1310.686680 0.2072 0.2017 0.1952 0.1882 0.1821 0.1771 0.1735 0.1706 0.1684 
1319.366724 0.1665 0.1643 0.1621 0.1599 0.1578 0.1558 0.1540 0.1527 0.1518 
1328.046769 0.1514 0.1514 0.1515 0.1514 0.1512 0.1505 0.1492 0.1471 0.1444 
1336.726813 0.1410 0.1373 0.1337 0.1301 0.1260 0.1221 0.1187 0.1152 0.1109 
1345.406857 0.1063 0.1016 0.0972 0.0933 0.0900 0.0870 0.0846 0.0824 0.0802 
1354.086901 0.0782 0.0762 0.0738 0.0718 0.0699 0.0682 0.0668 0.0660 0.0653 
1362.766946 0.0651 0.0651 0.0648 0.0648 0.0649 0.0646 0.0642 0.0635 0.0629 
1371.446990 0.0630 0.0637 0.0652 0.0681 0.0722 0.0777 0.0853 0.0963 0.1081 
1380.127034 0.1179 0.1227 0.1199 0.1112 0.1013 0.0938 0.0893 0.0870 0.0859 
1388.807078 0.0856 0.0861 0.0876 0.0897 0.0923 0.0950 0.0997 0.1055 0.1107 
1397.487123 0.1164 0.1233 0.1336 0.1442 0.1544 0.1681 0.1832 0.1999 0.2246 
1406.167167 0.2505 0.2753 0.3055 0.3355 0.3639 0.3857 0.3993 0.4031 0.3985 
1414.847211 0.3873 0.3729 0.3570 0.3425 0.3317 0.3189 0.3102 0.3049 0.3002 
1423.527255 0.2968 0.2932 0.2898 0.2867 0.2838 0.2807 0.2774 0.2728 0.2682 
1432.207300 0.2631 0.2574 0.2512 0.2457 0.2406 0.2320 0.2255 0.2209 0.2163 
1440.887344 0.2130 0.2104 0.2081 0.2051 0.2010 0.1963 0.1925 0.1899 0.1891 
1449.567388 0.1903 0.1949 0.2030 0.2157 0.2283 0.2404 0.2488 0.2512 0.2399 
1458.247432 0.2295 0.2175 0.2112 0.2068 0.2043 0.2035 0.2079 0.2266 0.2445 
1466.927477 0.2421 0.2361 0.2258 0.2003 0.1666 0.1357 0.1062 0.0920 0.0828 
1475.607521 0.0775 0.0710 0.0666 0.0629 0.0600 0.0573 0.0550 0.0527 0.0508 
1484.287565 0.0490 0.0478 0.0464 0.0449 0.0439 0.0433 0.0419 0.0408 0.0397 
1492.967609 0.0387 0.0378 0.0370 0.0359 0.0358 0.0349 0.0342 0.0340 0.0010 
1501.647654 0.0010 0.0010 0.0010 0.0010 0.0010 0.0010 0.0010 0.0010 0.0010 
1510.327698 0.0010 0.0010 0.0010 0.0010 0.0010 0.0010 0.0010 0.0010 0.0010 
1519.007742 0.0010 0.0010 0.0010 0.0010 0.0010 0.0010 0.0010 0.0010 0.0010 
1527.687786 0.0010 0.0010 0.0010 0.0010 0.0010 0.0010 0.0010 0.0010 0.0010 
1536.367830 0.0010 0.0010 0.0010 0.0010 0.0010 0.0010 0.0010 0.0010 0.0010 
1545.047875 0.0010 0.0010 0.0010 0.0010 0.0010 0.0010 0.0010 0.0010 0.0010 
1553.727919 0.0010 0.0010 0.0010 0.0010 0.0010 0.0010 0.0010 0.0010 0.0010 
1562.407963 0.0010 0.0010 0.0010 0.0010 0.0010 0.0010 0.0010 0.0010 0.0010 
1571.088007 0.0010 0.0010 0.0010 0.0010 0.0010 0.0010 0.0010 0.0010 0.0010 
1579.768052 0.0010 0.0010 0.0010 0.0010 0.0010 0.0010 0.0010 0.0010 0.0010 
1588.448096 0.0010 0.0010 0.0010 0.0010 0.0010 0.0010 0.0010 0.0010 0.0010 
1597.128140 0.0010 0.0010 0.0010 0.0010 0.0010 0.0010 0.0010 0.0010 0.0010 
1605.808184 0.0010 0.0010 0.0010 0.0010 0.0010 0.0010 0.0010 0.0010 0.0010 
1614.488229 0.0010 0.0010 0.0010 0.0010 0.0010 0.0010 0.0010 0.0010 0.0010 
1623.168273 0.0010 0.0010 0.0010 0.0010 0.0010 0.0010 0.0010 0.0010 0.0010 
1631.848317 0.0010 0.0010 0.0010 0.0010 0.0010 0.0010 0.0010 0.0010 0.0010 
1640.528361 0.0010 0.0010 0.0010 0.0010 0.0010 0.0010 0.0010 0.0010 0.0010 
1649.208406 0.0010 0.0739 0.0745 0.0736 0.0752 0.0820 0.0848 0.0860 0.0877 
1657.888450 0.0898 0.0919 0.0941 0.0964 0.0981 0.1008 0.1048 0.1069 0.1094 
1666.568494 0.1123 0.1148 0.1168 0.1220 0.1255 0.1286 0.1337 0.1369 0.1391 
1675.248538 0.1449 0.1533 0.1567 0.1619 0.1675 0.1754 0.1846 0.1905 0.1967 
1683.928583 0.2080 0.2324 0.2446 0.2545 0.2704 0.2923 0.3143 0.3418 0.3699 
1692.608627 0.4005 0.4368 0.4683 0.5119 0.6099 0.6599 0.7153 0.7642 0.9137 
1701.288671 1.1193 1.1908 1.3045 1.4883 1.7014 1.8905 2.0495 2.1990 2.2392 
1709.968715 2.2261 2.2436 2.2732 2.2504 2.1567 2.0401 2.0277 1.9194 1.6989 
1718.648760 1.3921 1.2073 1.0618 0.9248 0.8095 0.7084 0.6215 0.5577 0.5024 
1727.328804 0.4554 0.4174 0.3882 0.3567 0.3318 0.3163 0.3026 0.2858 0.2681 
1736.008848 0.2596 0.2518 0.2439 0.2373 0.2297 0.2225 0.2177 0.2130 0.2077 
1744.688892 0.2023 0.1974 0.1924 0.1875 0.1822 0.1769 0.1726 0.1672 0.1618 
1753.368936 0.1577 0.1536 0.1499 0.1466 0.1430 0.1397 0.1362 0.1326 0.1292 
1762.048981 0.1252 0.1214 0.1181 0.1150 0.1123 0.1100 0.1082 0.1063 0.1039 
1770.729025 0.1013 0.0987 0.0963 0.0948 0.0930 0.0916 0.0901 0.0886 0.0874 
1779.409069 0.0863 0.0849 0.0841 0.0829 0.0819 0.0809 0.0803 0.0791 0.0780 
1788.089113 0.0771 0.0762 0.0752 0.0745 0.0732 0.0724 0.0718 0.0709 0.0705 
1796.769158 0.0700 0.0691 0.0682 0.0680 0.0679 0.0675 0.0673 0.0667 0.0661 
1805.449202 0.0656 0.0652 0.0649 0.0646 0.0638 0.0632 0.0631 0.0628 0.0622 
1814.129246 0.0616 0.0610 0.0607 0.0605 0.0601 0.0596 0.0592 0.0589 0.0586 
1822.809290 0.0584 0.0579 0.0574 0.0578 0.0573 0.0566 0.0560 0.0557 0.0562 
1831.489335 0.0558 0.0552 0.0550 0.0546 0.0541 0.0537 0.0535 0.0531 0.0526 
1840.169379 0.0521 0.0518 0.0516 0.0509 0.0503 0.0509 0.0501 0.0495 0.0493 
1848.849423 0.0491 0.0484 0.0480 0.0476 0.0473 0.0469 0.0466 0.0463 0.0460 
1857.529467 0.0457 0.0455 0.0452 0.0449 0.0447 0.0444 0.0441 0.0439 0.0436 
1866.209512 0.0434 0.0432 0.0430 0.0430 0.0431 0.0428 0.0424 0.0421 0.0419 
1874.889556 0.0417 0.0416 0.0415 0.0414 0.0412 0.0412 0.0410 0.0409 0.0407 
1883.569600 0.0407 0.0405 0.0405 0.0403 0.0402 0.0399 0.0400 0.0402 0.0398 
1892.249644 0.0396 0.0395 0.0393 0.0393 0.0393 0.0390 0.0389 0.0388 0.0386 
1900.929689 0.0385 0.0384 0.0382 0.0381 0.0380 0.0378 0.0377 0.0377 0.0377 
1909.609733 0.0376 0.0377 0.0374 0.0372 0.0372 0.0372 0.0371 0.0370 0.0367 
1918.289777 0.0371 0.0372 0.0369 0.0368 0.0368 0.0371 0.0369 0.0365 0.0364 
1926.969821 0.0363 0.0362 0.0361 0.0360 0.0359 0.0359 0.0358 0.0358 0.0356 
1935.649866 0.0355 0.0355 0.0354 0.0353 0.0351 0.0351 0.0349 0.0351 0.0352 
1944.329910 0.0347 0.0345 0.0344 0.0343 0.0341 0.0340 0.0338 0.0337 0.0336 
1953.009954 0.0334 0.0333 0.0333 0.0332 0.0330 0.0328 0.0326 0.0325 0.0325 
1961.689998 0.0325 0.0324 0.0322 0.0322 0.0321 0.0321 0.0322 0.0321 0.0318 
1970.370042 0.0318 0.0317 0.0316 0.0315 0.0314 0.0313 0.0312 0.0311 0.0311 
1979.050087 0.0310 0.0309 0.0309 0.0309 0.0308 0.0307 0.0306 0.0306 0.0305 
1987.730131 0.0305 0.0306 0.0305 0.0303 0.0304 0.0307 0.0304 0.0302 0.0302 
1996.410175 0.0302 0.0302 0.0302 0.0302 0.0302 0.0302 0.0301 0.0302 0.0301 
2005.090219 0.0301 0.0301 0.0302 0.0302 0.0302 0.0301 0.0301 0.0301 0.0301 
2013.770264 0.0301 0.0301 0.0301 0.0303 0.0304 0.0303 0.0302 0.0301 0.0301 
2022.450308 0.0301 0.0301 0.0301 0.0301 0.0301 0.0301 0.0301 0.0300 0.0300 
2031.130352 0.0300 0.0300 0.0300 0.0299 0.0299 0.0299 0.0299 0.0298 0.0297 
2039.810396 0.0297 0.0297 0.0297 0.0296 0.0294 0.0294 0.0293 0.0293 0.0292 
2048.490441 0.0292 0.0291 0.0290 0.0290 0.0289 0.0289 0.0288 0.0288 0.0287 
2057.170485 0.0286 0.0285 0.0285 0.0284 0.0284 0.0284 0.0284 0.0284 0.0285 
2065.850529 0.0285 0.0283 0.0283 0.0283 0.0282 0.0282 0.0282 0.0282 0.0282 
2074.530573 0.0282 0.0282 0.0282 0.0282 0.0283 0.0283 0.0283 0.0284 0.0284 
2083.210618 0.0284 0.0284 0.0285 0.0285 0.0285 0.0286 0.0286 0.0286 0.0286 
2091.890662 0.0286 0.0285 0.0286 0.0285 0.0285 0.0286 0.0286 0.0286 0.0287 
2100.570706 0.0286 0.0287 0.0287 0.0287 0.0288 0.0288 0.0288 0.0288 0.0289 
2109.250750 0.0289 0.0289 0.0290 0.0290 0.0290 0.0290 0.0290 0.0290 0.0289 
2117.930795 0.0290 0.0290 0.0290 0.0290 0.0291 0.0291 0.0291 0.0291 0.0292 
2126.610839 0.0292 0.0292 0.0292 0.0293 0.0294 0.0294 0.0294 0.0295 0.0296 
2135.290883 0.0296 0.0297 0.0297 0.0297 0.0297 0.0297 0.0297 0.0298 0.0298 
2143.970927 0.0298 0.0298 0.0299 0.0299 0.0299 0.0299 0.0300 0.0300 0.0301 
2152.650972 0.0302 0.0302 0.0304 0.0305 0.0307 0.0308 0.0309 0.0311 0.0313 
2161.331016 0.0314 0.0316 0.0317 0.0318 0.0319 0.0320 0.0321 0.0321 0.0322 
2170.011060 0.0322 0.0323 0.0323 0.0323 0.0323 0.0323 0.0323 0.0323 0.0323 
2178.691104 0.0323 0.0323 0.0323 0.0323 0.0323 0.0322 0.0322 0.0322 0.0321 
2187.371148 0.0321 0.0320 0.0319 0.0319 0.0319 0.0319 0.0319 0.0318 0.0317 
2196.051193 0.0317 0.0317 0.0317 0.0316 0.0316 0.0315 0.0315 0.0315 0.0315 
2204.731237 0.0315 0.0316 0.0317 0.0317 0.0317 0.0318 0.0319 0.0320 0.0321 
2213.411281 0.0322 0.0323 0.0324 0.0325 0.0325 0.0326 0.0327 0.0327 0.0328 
2222.091325 0.0328 0.0328 0.0329 0.0329 0.0329 0.0330 0.0330 0.0330 0.0331 
2230.771370 0.0331 0.0331 0.0331 0.0331 0.0332 0.0332 0.0333 0.0334 0.0335 
2239.451414 0.0336 0.0337 0.0338 0.0339 0.0340 0.0342 0.0343 0.0345 0.0347 
2248.131458 0.0348 0.0350 0.0352 0.0354 0.0356 0.0357 0.0358 0.0360 0.0361 
2256.811502 0.0362 0.0362 0.0363 0.0363 0.0362 0.0362 0.0362 0.0361 0.0361 
2265.491547 0.0360 0.0360 0.0359 0.0358 0.0357 0.0357 0.0356 0.0356 0.0355 
2274.171591 0.0354 0.0354 0.0354 0.0353 0.0352 0.0352 0.0352 0.0352 0.0352 
2282.851635 0.0352 0.0351 0.0352 0.0352 0.0352 0.0353 0.0354 0.0354 0.0354 
2291.531679 0.0355 0.0356 0.0357 0.0358 0.0358 0.0361 0.0361 0.0362 0.0363 
2300.211724 0.0364 0.0366 0.0366 0.0369 0.0369 0.0372 0.0372 0.0374 0.0375 
2308.891768 0.0376 0.0378 0.0378 0.0382 0.0379 0.0383 0.0380 0.0385 0.0382 
2317.571812 0.0387 0.0385 0.0390 0.0388 0.0392 0.0390 0.0393 0.0391 0.0392 
2326.251856 0.0390 0.0392 0.0391 0.0393 0.0392 0.0393 0.0393 0.0393 0.0393 
2334.931901 0.0394 0.0394 0.0396 0.0396 0.0397 0.0398 0.0400 0.0402 0.0405 
2343.611945 0.0407 0.0410 0.0414 0.0418 0.0421 0.0425 0.0424 0.0423 0.0422 
2352.291989 0.0422 0.0420 0.0422 0.0423 0.0423 0.0421 0.0424 0.0425 0.0426 
2360.972033 0.0428 0.0431 0.0434 0.0437 0.0441 0.0445 0.0448 0.0452 0.0454 
2369.652078 0.0458 0.0462 0.0466 0.0469 0.0473 0.0475 0.0479 0.0482 0.0485 
2378.332122 0.0487 0.0489 0.0491 0.0493 0.0494 0.0496 0.0497 0.0500 0.0502 
2387.012166 0.0504 0.0505 0.0508 0.0510 0.0513 0.0515 0.0518 0.0520 0.0522 
2395.692210 0.0524 0.0528 0.0530 0.0532 0.0534 0.0538 0.0540 0.0543 0.0545 
2404.372254 0.0547 0.0549 0.0552 0.0554 0.0556 0.0558 0.0560 0.0563 0.0566 
2413.052299 0.0569 0.0571 0.0573 0.0576 0.0579 0.0582 0.0585 0.0587 0.0589 
2421.732343 0.0592 0.0595 0.0598 0.0600 0.0603 0.0605 0.0607 0.0610 0.0613 
2430.412387 0.0615 0.0618 0.0620 0.0624 0.0625 0.0628 0.0631 0.0634 0.0637 
2439.092431 0.0640 0.0643 0.0646 0.0649 0.0653 0.0655 0.0659 0.0662 0.0666 
2447.772476 0.0669 0.0672 0.0675 0.0679 0.0682 0.0686 0.0689 0.0693 0.0696 
2456.452520 0.0701 0.0705 0.0709 0.0713 0.0717 0.0721 0.0727 0.0731 0.0735 
2465.132564 0.0740 0.0745 0.0749 0.0754 0.0759 0.0764 0.0769 0.0775 0.0780 
2473.812608 0.0786 0.0791 0.0798 0.0803 0.0809 0.0815 0.0822 0.0827 0.0833 
2482.492653 0.0839 0.0845 0.0851 0.0858 0.0864 0.0870 0.0876 0.0883 0.0889 
2491.172697 0.0896 0.0902 0.0908 0.0914 0.0920 0.0927 0.0934 0.0941 0.0948 
2499.852741 0.0955 0.0964 0.0971 0.0979 0.0986 0.0994 0.1002 0.1011 0.1019 
2508.532785 0.1028 0.1036 0.1045 0.1053 0.1061 0.1070 0.1079 0.1088 0.1097 
2517.212830 0.1106 0.1116 0.1125 0.1135 0.1144 0.1154 0.1164 0.1174 0.1184 
2525.892874 0.1194 0.1205 0.1216 0.1226 0.1238 0.1250 0.1263 0.1274 0.1287 
2534.572918 0.1298 0.1312 0.1325 0.1338 0.1349 0.1362 0.1374 0.1386 0.1396 
2543.252962 0.1407 0.1416 0.1426 0.1434 0.1443 0.1450 0.1457 0.1463 0.1470 
2551.933007 0.1475 0.1481 0.1485 0.1491 0.1495 0.1500 0.1505 0.1511 0.1516 
2560.613051 0.1522 0.1528 0.1535 0.1540 0.1547 0.1553 0.1560 0.1567 0.1574 
2569.293095 0.1581 0.1589 0.1595 0.1603 0.1609 0.1616 0.1622 0.1628 0.1631 
2577.973139 0.1635 0.1637 0.1639 0.1640 0.1641 0.1641 0.1641 0.1640 0.1641 
2586.653184 0.1641 0.1643 0.1645 0.1648 0.1650 0.1655 0.1660 0.1666 0.1672 
2595.333228 0.1679 0.1686 0.1694 0.1701 0.1709 0.1716 0.1724 0.1730 0.1738 
2604.013272 0.1745 0.1752 0.1758 0.1765 0.1770 0.1775 0.1779 0.1784 0.1787 
2612.693316 0.1790 0.1792 0.1794 0.1795 0.1796 0.1796 0.1796 0.1796 0.1797 
2621.373360 0.1797 0.1799 0.1800 0.1802 0.1805 0.1809 0.1812 0.1818 0.1824 
2630.053405 0.1831 0.1837 0.1845 0.1851 0.1859 0.1865 0.1872 0.1878 0.1885 
2638.733449 0.1890 0.1896 0.1902 0.1910 0.1917 0.1924 0.1931 0.1941 0.1949 
2647.413493 0.1961 0.1971 0.1983 0.1993 0.2006 0.2018 0.2030 0.2040 0.2052 
2656.093537 0.2061 0.2072 0.2081 0.2091 0.2100 0.2110 0.2118 0.2128 0.2136 
2664.773582 0.2145 0.2152 0.2160 0.2164 0.2170 0.2174 0.2179 0.2180 0.2183 
2673.453626 0.2184 0.2185 0.2181 0.2178 0.2171 0.2164 0.2155 0.2145 0.2133 
2682.133670 0.2121 0.2108 0.2096 0.2083 0.2071 0.2059 0.2049 0.2038 0.2030 
2690.813714 0.2020 0.2012 0.2003 0.1996 0.1989 0.1982 0.1974 0.1969 0.1963 
2699.493759 0.1958 0.1951 0.1947 0.1941 0.1936 0.1932 0.1928 0.1923 0.1920 
2708.173803 0.1917 0.1914 0.1911 0.1909 0.1905 0.1903 0.1900 0.1899 0.1896 
2716.853847 0.1895 0.1893 0.1891 0.1889 0.1888 0.1887 0.1887 0.1886 0.1886 
2725.533891 0.1886 0.1889 0.1893 0.1897 0.1901 0.1907 0.1912 0.1920 0.1927 
2734.213936 0.1933 0.1938 0.1942 0.1943 0.1945 0.1945 0.1946 0.1946 0.1946 
2742.893980 0.1945 0.1945 0.1943 0.1943 0.1940 0.1938 0.1935 0.1933 0.1930 
2751.574024 0.1929 0.1927 0.1926 0.1924 0.1922 0.1920 0.1921 0.1920 0.1921 
2760.254068 0.1921 0.1923 0.1923 0.1925 0.1926 0.1928 0.1929 0.1931 0.1932 
2768.934113 0.1934 0.1935 0.1937 0.1939 0.1940 0.1941 0.1944 0.1947 0.1951 
2777.614157 0.1954 0.1958 0.1962 0.1968 0.1972 0.1978 0.1984 0.1991 0.1998 
2786.294201 0.2005 0.2011 0.2019 0.2027 0.2036 0.2043 0.2052 0.2060 0.2069 
2794.974245 0.2077 0.2087 0.2096 0.2106 0.2116 0.2128 0.2139 0.2151 0.2163 
2803.654290 0.2176 0.2189 0.2203 0.2216 0.2230 0.2244 0.2258 0.2271 0.2285 
2812.334334 0.2299 0.2314 0.2328 0.2342 0.2354 0.2368 0.2381 0.2394 0.2406 
2821.014378 0.2418 0.2430 0.2444 0.2456 0.2473 0.2487 0.2504 0.2520 0.2538 
2829.694422 0.2555 0.2572 0.2587 0.2601 0.2612 0.2623 0.2634 0.2647 0.2661 
2838.374466 0.2679 0.2697 0.2719 0.2742 0.2767 0.2791 0.2818 0.2845 0.2876 
2847.054511 0.2910 0.2950 0.2992 0.3042 0.3095 0.3158 0.3228 0.3306 0.3393 
2855.734555 0.3492 0.3599 0.3718 0.3845 0.3980 0.4114 0.4250 0.4375 0.4491 
2864.414599 0.4591 0.4679 0.4750 0.4814 0.4869 0.4932 0.5007 0.5111 0.5239 
2873.094643 0.5393 0.5540 0.5643 0.5646 0.5548 0.5366 0.5153 0.4936 0.4746 
2881.774688 0.4583 0.4455 0.4352 0.4277 0.4221 0.4184 0.4158 0.4147 0.4144 
2890.454732 0.4153 0.4163 0.4184 0.4211 0.4249 0.4290 0.4342 0.4400 0.4464 
2899.134776 0.4526 0.4589 0.4643 0.4691 0.4725 0.4759 0.4790 0.4827 0.4866 
2907.814820 0.4913 0.4956 0.5004 0.5051 0.5100 0.5143 0.5192 0.5239 0.5290 
2916.494865 0.5339 0.5400 0.5463 0.5541 0.5621 0.5712 0.5807 0.5915 0.6028 
2925.174909 0.6156 0.6289 0.6436 0.6584 0.6745 0.6905 0.7067 0.7197 0.7300 
2933.854953 0.7353 0.7367 0.7327 0.7252 0.7137 0.7010 0.6871 0.6748 0.6628 
2942.534997 0.6528 0.6439 0.6381 0.6336 0.6311 0.6304 0.6330 0.6374 0.6450 
2951.215042 0.6549 0.6694 0.6888 0.7139 0.7421 0.7743 0.8073 0.8411 0.8708 
2959.895086 0.8955 0.9111 0.9199 0.9206 0.9154 0.9012 0.8821 0.8567 0.8287 
2968.575130 0.7971 0.7650 0.7320 0.7006 0.6695 0.6406 0.6137 0.5905 0.5689 
2977.255174 0.5492 0.5307 0.5148 0.5004 0.4878 0.4763 0.4665 0.4571 0.4486 
2985.935219 0.4405 0.4336 0.4272 0.4217 0.4162 0.4112 0.4063 0.4026 0.3993 
2994.615263 0.3966 0.3937 0.3910 0.3886 0.3871 0.3855 0.3841 0.3827 0.3816 
3003.295307 0.3804 0.3799 0.3793 0.3789 0.3782 0.3779 0.3773 0.3769 0.3766 
3011.975351 0.3768 0.3766 0.3767 0.3769 0.3774 0.3776 0.3781 0.3782 0.3787 
3020.655396 0.3792 0.3799 0.3801 0.3803 0.3805 0.3812 0.3817 0.3821 0.3820 
3029.335440 0.3821 0.3822 0.3825 0.3823 0.3823 0.3822 0.3824 0.3825 0.3827 
3038.015484 0.3825 0.3821 0.3812 0.3807 0.3801 0.3798 0.3792 0.3786 0.3781 
3046.695528 0.3776 0.3767 0.3759 0.3746 0.3736 0.3728 0.3721 0.3709 0.3699 
3055.375572 0.3689 0.3680 0.3669 0.3661 0.3650 0.3642 0.3630 0.3620 0.3609 
3064.055617 0.3601 0.3589 0.3578 0.3568 0.3563 0.3557 0.3552 0.3544 0.3538 
3072.735661 0.3531 0.3525 0.3518 0.3513 0.3505 0.3500 0.3495 0.3492 0.3489 
3081.415705 0.3490 0.3487 0.3484 0.3481 0.3482 0.3479 0.3480 0.3478 0.3474 
3090.095749 0.3468 0.3468 0.3466 0.3465 0.3461 0.3457 0.3451 0.3447 0.3437 
3098.775794 0.3428 0.3419 0.3415 0.3409 0.3402 0.3391 0.3383 0.3373 0.3361 
3107.455838 0.3348 0.3337 0.3326 0.3318 0.3307 0.3295 0.3279 0.3264 0.3248 
3116.135882 0.3235 0.3221 0.3207 0.3191 0.3177 0.3162 0.3150 0.3135 0.3120 
3124.815926 0.3103 0.3087 0.3069 0.3053 0.3032 0.3015 0.3000 0.2985 0.2970 
3133.495971 0.2956 0.2940 0.2924 0.2906 0.2888 0.2869 0.2853 0.2838 0.2824 
3142.176015 0.2808 0.2792 0.2776 0.2760 0.2743 0.2727 0.2711 0.2696 0.2678 
3150.856059 0.2662 0.2645 0.2633 0.2621 0.2610 0.2596 0.2584 0.2571 0.2558 
3159.536103 0.2545 0.2533 0.2520 0.2508 0.2495 0.2483 0.2471 0.2459 0.2446 
3168.216148 0.2435 0.2423 0.2412 0.2399 0.2388 0.2376 0.2365 0.2354 0.2343 
3176.896192 0.2331 0.2320 0.2309 0.2298 0.2287 0.2276 0.2264 0.2254 0.2243 
3185.576236 0.2233 0.2221 0.2210 0.2198 0.2188 0.2177 0.2167 0.2156 0.2146 
3194.256280 0.2134 0.2123 0.2111 0.2101 0.2090 0.2079 0.2067 0.2056 0.2044 
3202.936325 0.2033 0.2021 0.2010 0.1998 0.1987 0.1975 0.1963 0.1953 0.1943 
3211.616369 0.1930 0.1918 0.1904 0.1893 0.1882 0.1871 0.1858 0.1846 0.1834 
3220.296413 0.1823 0.1811 0.1799 0.1788 0.1777 0.1765 0.1753 0.1740 0.1730 
3228.976457 0.1717 0.1705 0.1692 0.1679 0.1666 0.1656 0.1646 0.1635 0.1625 
3237.656502 0.1613 0.1601 0.1590 0.1579 0.1568 0.1556 0.1544 0.1532 0.1522 
3246.336546 0.1510 0.1498 0.1487 0.1478 0.1467 0.1456 0.1445 0.1434 0.1423 
3255.016590 0.1411 0.1401 0.1392 0.1382 0.1372 0.1361 0.1351 0.1340 0.1330 
3263.696634 0.1320 0.1309 0.1298 0.1288 0.1278 0.1267 0.1256 0.1246 0.1236 
3272.376678 0.1226 0.1216 0.1207 0.1198 0.1189 0.1179 0.1169 0.1159 0.1150 
3281.056723 0.1140 0.1131 0.1122 0.1113 0.1103 0.1093 0.1084 0.1075 0.1065 
3289.736767 0.1056 0.1047 0.1038 0.1030 0.1022 0.1013 0.1004 0.0996 0.0988 
3298.416811 0.0980 0.0970 0.0962 0.0953 0.0944 0.0936 0.0927 0.0919 0.0912 
3307.096855 0.0903 0.0895 0.0888 0.0881 0.0874 0.0866 0.0858 0.0851 0.0844 
3315.776900 0.0837 0.0831 0.0823 0.0816 0.0809 0.0802 0.0795 0.0789 0.0783 
3324.456944 0.0776 0.0770 0.0765 0.0760 0.0755 0.0748 0.0742 0.0737 0.0732 
3333.136988 0.0727 0.0723 0.0719 0.0713 0.0709 0.0706 0.0702 0.0697 0.0692 
3341.817032 0.0688 0.0684 0.0680 0.0675 0.0672 0.0668 0.0664 0.0660 0.0657 
3350.497077 0.0653 0.0649 0.0644 0.0639 0.0634 0.0629 0.0624 0.0618 0.0612 
3359.177121 0.0607 0.0601 0.0595 0.0588 0.0581 0.0574 0.0568 0.0562 0.0556 
3367.857165 0.0551 0.0545 0.0538 0.0530 0.0524 0.0516 0.0509 0.0503 0.0498 
3376.537209 0.0492 0.0486 0.0480 0.0476 0.0471 0.0464 0.0458 0.0452 0.0447 
3385.217254 0.0443 0.0438 0.0434 0.0430 0.0427 0.0426 0.0424 0.0418 0.0413 
3393.897298 0.0408 0.0403 0.0397 0.0393 0.0393 0.0392 0.0390 0.0386 0.0381 
3402.577342 0.0374 0.0368 0.0363 0.0358 0.0355 0.0354 0.0353 0.0348 0.0343 
3411.257386 0.0341 0.0341 0.0337 0.0331 0.0325 0.0321 0.0319 0.0316 0.0313 
3419.937431 0.0312 0.0310 0.0306 0.0303 0.0301 0.0298 0.0296 0.0294 0.0293 
3428.617475 0.0293 0.0292 0.0289 0.0284 0.0282 0.0283 0.0283 0.0280 0.0278 
3437.297519 0.0275 0.0268 0.0262 0.0259 0.0256 0.0255 0.0255 0.0252 0.0249 
3445.977563 0.0246 0.0246 0.0248 0.0244 0.0241 0.0238 0.0237 0.0236 0.0235 
3454.657608 0.0234 0.0232 0.0231 0.0229 0.0230 0.0231 0.0228 0.0224 0.0223 
3463.337652 0.0223 0.0221 0.0221 0.0221 0.0221 0.0220 0.0218 0.0215 0.0213 
3472.017696 0.0210 0.0208 0.0206 0.0207 0.0207 0.0205 0.0204 0.0204 0.0203 
3480.697740 0.0201 0.0198 0.0200 0.0200 0.0198 0.0197 0.0196 0.0194 0.0195 
3489.377784 0.0193 0.0191 0.0191 0.0190 0.0189 0.0189 0.0188 0.0189 0.0190 
3498.057829 0.0188 0.0186 0.0186 0.0187 0.0187 0.0188 0.0188 0.0187 0.0186 
3506.737873 0.0184 0.0184 0.0183 0.0188 0.0189 0.0188 0.0188 0.0188 0.0189 
3515.417917 0.0189 0.0190 0.0192 0.0193 0.0196 0.0198 0.0198 0.0200 0.0208 
3524.097961 0.0214 0.0214 0.0213 0.0215 0.0218 0.0220 0.0223 0.0225 0.0227 
3532.778006 0.0227 0.0228 0.0226 0.0226 0.0230 0.0228 0.0221 0.0218 0.0215 
3541.458050 0.0212 0.0209 0.0206 0.0201 0.0203 0.0198 0.0194 0.0188 0.0181 
3550.138094 0.0177 0.0171 0.0171 0.0173 0.0170 0.0167 0.0162 0.0161 0.0160 
3558.818138 0.0157 0.0157 0.0160 0.0156 0.0154 0.0155 0.0153 0.0149 0.0161 
3567.498183 0.0158 0.0165 0.0161 0.0154 0.0154 0.0150 0.0148 0.0148 0.0150 
3576.178227 0.0148 0.0149 0.0150 0.0148 0.0150 0.0151 0.0148 0.0147 0.0148 
3584.858271 0.0145 0.0138 0.0149 0.0152 0.0154 0.0156 0.0147 0.0143 0.0141 
3593.538315 0.0147 0.0142 0.0146 0.0150 0.0143 0.0143 0.0144 0.0139 0.0144 
3602.218360 0.0144 0.0144 0.0143 0.0140 0.0134 0.0141 0.0141 0.0136 0.0153 
3610.898404 0.0143 0.0130 0.0140 0.0140 0.0141 0.0146 0.0132 0.0133 0.0135 
3619.578448 0.0136 0.0146 0.0142 0.0139 0.0137 0.0137 0.0134 0.0138 0.0126 
3628.258492 0.0111 0.0132 0.0154 0.0148 0.0140 0.0132 0.0142 0.0146 0.0141 
3636.938537 0.0138 0.0139 0.0142 0.0142 0.0141 0.0141 0.0145 0.0145 0.0141 
3645.618581 0.0134 0.0126 0.0140 0.0136 0.0132 0.0138 0.0158 0.0160 0.0152 
3654.298625 0.0148 0.0135 0.0141 0.0162 0.0155 0.0152 0.0153 0.0155 0.0156 
3662.978669 0.0158 0.0159 0.0161 0.0163 0.0163 0.0154 0.0158 0.0156 0.0166 
3671.658714 0.0190 0.0179 0.0165 0.0148 0.0161 0.0192 0.0190 0.0179 0.0179 
3680.338758 0.0184 0.0180 0.0176 0.0174 0.0174 0.0176 0.0172 0.0157 0.0147 
3689.018802 0.0174 0.0161 0.0157 0.0173 0.0167 0.0164 0.0163 0.0160 0.0160 
3697.698846 0.0159 0.0158 0.0156 0.0146 0.0146 0.0159 0.0154 0.0149 0.0149 
3706.378890 0.0149 0.0146 0.0136 0.0139 0.0147 0.0128 0.0138 0.0158 0.0149 
3715.058935 0.0149 0.0148 0.0144 0.0140 0.0145 0.0150 0.0139 0.0135 0.0152 
3723.738979 0.0149 0.0142 0.0143 0.0147 0.0152 0.0145 0.0142 0.0136 0.0125 
3732.419023 0.0141 0.0141 0.0127 0.0145 0.0150 0.0150 0.0146 0.0148 0.0139 
3741.099067 0.0142 0.0146 0.0126 0.0102 0.0152 0.0156 0.0143 0.0132 0.0115 
3749.779112 0.0135 0.0132 0.0113 0.0146 0.0150 0.0144 0.0134 0.0137 0.0145 
3758.459156 0.0135 0.0134 0.0147 0.0142 0.0140 0.0141 0.0136 0.0131 0.0145 
3767.139200 0.0145 0.0137 0.0126 0.0136 0.0145 0.0141 0.0140 0.0139 0.0139 
3775.819244 0.0139 0.0139 0.0136 0.0129 0.0142 0.0149 0.0141 0.0140 0.0136 
3784.499289 0.0137 0.0143 0.0143 0.0142 0.0141 0.0141 0.0142 0.0141 0.0141 
3793.179333 0.0143 0.0143 0.0137 0.0133 0.0146 0.0147 0.0144 0.0132 0.0120 
3801.859377 0.0141 0.0150 0.0149 0.0145 0.0133 0.0129 0.0154 0.0151 0.0146 
3810.539421 0.0147 0.0148 0.0149 0.0148 0.0140 0.0124 0.0146 0.0157 0.0148 
3819.219466 0.0141 0.0127 0.0139 0.0164 0.0155 0.0150 0.0149 0.0143 0.0149 
3827.899510 0.0153 0.0152 0.0149 0.0140 0.0147 0.0156 0.0142 0.0142 0.0157 
3836.579554 0.0139 0.0129 0.0155 0.0146 0.0149 0.0160 0.0150 0.0144 0.0159 
3845.259598 0.0155 0.0151 0.0150 0.0149 0.0149 0.0151 0.0139 0.0140 0.0131 
3853.939643 0.0121 0.0164 0.0151 0.0147 0.0157 0.0152 0.0146 0.0139 0.0144 
3862.619687 0.0154 0.0142 0.0136 0.0155 0.0156 0.0147 0.0136 0.0130 0.0157 
3871.299731 0.0159 0.0149 0.0134 0.0144 0.0155 0.0146 0.0145 0.0146 0.0136 
3879.979775 0.0134 0.0158 0.0153 0.0145 0.0147 0.0135 0.0144 0.0157 0.0148 
3888.659820 0.0146 0.0142 0.0133 0.0147 0.0155 0.0149 0.0152 0.0148 0.0144 
3897.339864 0.0142 0.0137 0.0147 0.0155 0.0141 0.0155 0.0148 0.0146 0.0157 
3906.019908 0.0156 0.0154 0.0149 0.0148 0.0147 0.0146 0.0147 0.0147 0.0148 
3914.699952 0.0148 0.0144 0.0147 0.0158 0.0152 0.0146 0.0155 0.0154 0.0150 
3923.379996 0.0151 0.0154 0.0160 0.0157 0.0152 0.0152 0.0153 0.0157 0.0155 
3932.060041 0.0156 0.0162 0.0157 0.0155 0.0154 0.0153 0.0154 0.0157 0.0156 
3940.740085 0.0154 0.0151 0.0158 0.0165 0.0161 0.0157 0.0155 0.0159 0.0161 
3949.420129 0.0158 0.0162 0.0160 0.0157 0.0157 0.0157 0.0157 0.0158 0.0159 
3958.100173 0.0160 0.0160 0.0159 0.0158 0.0163 0.0164 0.0161 0.0161 0.0161 
3966.780218 0.0162 0.0162 0.0162 0.0163 0.0163 0.0163 0.0165 0.0164 0.0164 
3975.460262 0.0166 0.0167 0.0164 0.0163 0.0164 0.0164 0.0162 0.0162 0.0162 
3984.140306 0.0160 0.0161 0.0161 0.0161 0.0160 0.0159 0.0159 0.0160 0.0158 
3992.820350 0.0156 0.0156 0.0156 0.0158 0.0156 0.0156 0.0156 0.0157 0.0157 
##END=
