##JCAMP-DX=5.01
##FILENAME=/home/s4145/Desktop/scripts/FINAL/Preprocess_real_data_1500/val_ester/subtracted/KAM-7.jdx
##XUNITS=1/CM
##YUNITS=ABSORBANCE
##FIRSTX=399.282035
##LASTX=4000.535945
##MAXX=4000.535945
##MINX=399.282035
##FIRSTY=0.2698
##LASTY=0.1078
##MAXY=2.2494
##MINY=0.0591
##NPOINTS=3735
##XFACTOR=1
##YFACTOR=1
##XYDATA=(X++(Y..Y))
399.282035 0.2698 0.2557 0.2269 0.2136 0.2107 0.2049 0.1976 0.1944 0.1928 0.1921 
408.926529 0.1925 0.1922 0.1855 0.1775 0.1742 0.1743 0.1751 0.1749 0.1793 0.1992 
418.571022 0.2185 0.1899 0.1685 0.1663 0.1819 0.1843 0.1730 0.1736 0.1605 0.1517 
428.215516 0.1506 0.1529 0.1556 0.1549 0.1535 0.1524 0.1564 0.1611 0.1658 0.1667 
437.860009 0.1584 0.1549 0.1484 0.1456 0.1485 0.1525 0.1582 0.1565 0.1544 0.1595 
447.504503 0.1549 0.1465 0.1433 0.1433 0.1456 0.1528 0.1521 0.1410 0.1358 0.1350 
457.148997 0.1431 0.1442 0.1325 0.1298 0.1370 0.1368 0.1290 0.1261 0.1224 0.1204 
466.793490 0.1239 0.1364 0.1363 0.1252 0.1218 0.1269 0.1349 0.1242 0.1187 0.1207 
476.437984 0.1230 0.1191 0.1162 0.1152 0.1159 0.1165 0.1146 0.1158 0.1165 0.1143 
486.082477 0.1153 0.1103 0.1060 0.1049 0.1046 0.1086 0.1135 0.1052 0.1001 0.0989 
495.726971 0.0973 0.0966 0.0957 0.0945 0.0939 0.0951 0.1025 0.1051 0.0971 0.0952 
505.371465 0.0932 0.0944 0.0947 0.0905 0.0905 0.0945 0.0934 0.0895 0.0892 0.0903 
515.015958 0.0903 0.0919 0.0993 0.0971 0.0957 0.0962 0.0884 0.0848 0.0839 0.0837 
524.660452 0.0850 0.0896 0.0891 0.0845 0.0842 0.0846 0.0843 0.0833 0.0839 0.0859 
534.304945 0.0867 0.0847 0.0842 0.0837 0.0821 0.0820 0.0817 0.0806 0.0806 0.0807 
543.949439 0.0810 0.0820 0.0826 0.0822 0.0830 0.0825 0.0855 0.0851 0.0816 0.0804 
553.593933 0.0799 0.0805 0.0805 0.0810 0.0818 0.0821 0.0818 0.0818 0.0821 0.0825 
563.238426 0.0832 0.0843 0.0850 0.0862 0.0880 0.0880 0.0895 0.0900 0.0907 0.0915 
572.882920 0.0915 0.0925 0.0950 0.1019 0.1019 0.0977 0.0983 0.1023 0.1082 0.1060 
582.527413 0.1032 0.1041 0.1075 0.1070 0.1050 0.1058 0.1062 0.1053 0.1050 0.1091 
592.171907 0.1101 0.1039 0.1025 0.1028 0.1018 0.1012 0.1012 0.1025 0.1068 0.1052 
601.816401 0.1018 0.1013 0.1019 0.1024 0.1020 0.1018 0.1017 0.1019 0.1019 0.1017 
611.460894 0.1016 0.1014 0.1010 0.1005 0.1009 0.1015 0.1009 0.0997 0.0989 0.1000 
621.105388 0.1000 0.0987 0.0989 0.1001 0.1028 0.1033 0.1019 0.1017 0.1021 0.1024 
630.749881 0.1024 0.1028 0.1033 0.1023 0.1028 0.1045 0.1011 0.0994 0.0992 0.1010 
640.394375 0.1011 0.0997 0.1000 0.1001 0.0994 0.0997 0.0997 0.0989 0.0991 0.0995 
650.038869 0.0850 0.0850 0.0850 0.0850 0.0850 0.0850 0.0850 0.0850 0.0850 0.0850 
659.683362 0.0850 0.0850 0.0850 0.0850 0.0850 0.0850 0.0850 0.0850 0.0850 0.0850 
669.327856 0.0850 0.0850 0.0850 0.0850 0.0850 0.0850 0.0850 0.0850 0.0850 0.0850 
678.972349 0.0850 0.0850 0.0850 0.0850 0.0850 0.0850 0.0850 0.0850 0.0850 0.0850 
688.616843 0.0850 0.0850 0.0850 0.0850 0.0850 0.0850 0.0850 0.0850 0.0850 0.0850 
698.261337 0.0850 0.0850 0.0850 0.0850 0.0850 0.0850 0.0850 0.0850 0.0850 0.0850 
707.905830 0.0850 0.0850 0.0850 0.0850 0.0850 0.0850 0.0850 0.0850 0.0850 0.0850 
717.550324 0.0850 0.0850 0.0850 0.0850 0.0850 0.0850 0.0850 0.0850 0.0850 0.0850 
727.194817 0.0850 0.0850 0.0850 0.0850 0.0850 0.0850 0.0850 0.0850 0.0850 0.0850 
736.839311 0.0850 0.0850 0.0850 0.0850 0.0850 0.0850 0.0850 0.0850 0.0850 0.0850 
746.483805 0.0850 0.0850 0.0850 0.0850 0.0850 0.0850 0.0850 0.0850 0.0850 0.0850 
756.128298 0.0850 0.0850 0.0850 0.0850 0.0850 0.0850 0.0850 0.0850 0.0850 0.0850 
765.772792 0.0850 0.0850 0.0850 0.0850 0.0850 0.0850 0.0850 0.0850 0.0850 0.0850 
775.417285 0.0850 0.0850 0.0850 0.0850 0.0850 0.0850 0.0850 0.0850 0.0850 0.0850 
785.061779 0.0850 0.0850 0.0850 0.0850 0.0850 0.0850 0.0850 0.0850 0.0850 0.0850 
794.706273 0.0850 0.0850 0.0850 0.0850 0.0850 0.0850 0.0850 0.0850 0.0850 0.0850 
804.350766 0.0850 0.0850 0.0850 0.0850 0.0850 0.0850 0.0850 0.0850 0.0850 0.0850 
813.995260 0.0850 0.0850 0.0850 0.0850 0.0850 0.0850 0.0850 0.0850 0.0850 0.0850 
823.639753 0.0850 0.0850 0.0850 0.0850 0.0850 0.0850 0.0850 0.0850 0.0850 0.0850 
833.284247 0.0850 0.0850 0.0850 0.0850 0.0850 0.0850 0.0850 0.0850 0.0850 0.0850 
842.928741 0.0850 0.0850 0.0850 0.0850 0.0850 0.0850 0.0850 0.0850 0.0850 0.0850 
852.573234 0.0850 0.0850 0.0850 0.0850 0.0850 0.0850 0.0850 0.0850 0.1660 0.1665 
862.217728 0.1676 0.1685 0.1694 0.1699 0.1700 0.1693 0.1680 0.1651 0.1602 0.1531 
871.862221 0.1450 0.1368 0.1296 0.1235 0.1189 0.1153 0.1126 0.1106 0.1095 0.1085 
881.506715 0.1079 0.1078 0.1077 0.1076 0.1078 0.1077 0.1077 0.1077 0.1078 0.1080 
891.151209 0.1087 0.1095 0.1109 0.1128 0.1154 0.1188 0.1229 0.1272 0.1312 0.1342 
900.795702 0.1363 0.1376 0.1387 0.1391 0.1386 0.1368 0.1341 0.1308 0.1279 0.1257 
910.440196 0.1246 0.1242 0.1246 0.1242 0.1224 0.1190 0.1149 0.1110 0.1078 0.1054 
920.084689 0.1040 0.1034 0.1037 0.1044 0.1057 0.1076 0.1104 0.1137 0.1176 0.1213 
929.729183 0.1250 0.1281 0.1309 0.1337 0.1370 0.1395 0.1417 0.1444 0.1474 0.1492 
939.373677 0.1494 0.1473 0.1434 0.1378 0.1317 0.1255 0.1201 0.1156 0.1121 0.1096 
949.018170 0.1079 0.1070 0.1070 0.1075 0.1090 0.1110 0.1141 0.1180 0.1224 0.1273 
958.662664 0.1330 0.1388 0.1452 0.1520 0.1590 0.1652 0.1695 0.1709 0.1698 0.1671 
968.307157 0.1648 0.1639 0.1650 0.1678 0.1727 0.1791 0.1865 0.1937 0.2004 0.2054 
977.951651 0.2085 0.2093 0.2090 0.2083 0.2084 0.2091 0.2104 0.2116 0.2124 0.2115 
987.596145 0.2085 0.2035 0.1972 0.1901 0.1831 0.1763 0.1709 0.1667 0.1639 0.1621 
997.240638 0.1618 0.1627 0.1648 0.1678 0.1721 0.1778 0.1853 0.1941 0.2046 0.2166 
1006.885132 0.2304 0.2454 0.2620 0.2800 0.3001 0.3213 0.3429 0.3624 0.3780 
1015.565176 0.3871 0.3896 0.3859 0.3784 0.3692 0.3601 0.3505 0.3383 0.3213 
1024.245220 0.2995 0.2751 0.2523 0.2331 0.2181 0.2060 0.1962 0.1872 0.1790 
1032.925265 0.1706 0.1623 0.1544 0.1476 0.1418 0.1373 0.1337 0.1311 0.1291 
1041.605309 0.1280 0.1272 0.1272 0.1277 0.1291 0.1311 0.1343 0.1385 0.1442 
1050.285353 0.1513 0.1601 0.1694 0.1780 0.1836 0.1861 0.1861 0.1855 0.1848 
1058.965397 0.1845 0.1850 0.1872 0.1913 0.1977 0.2046 0.2096 0.2101 0.2056 
1067.645442 0.1979 0.1901 0.1833 0.1783 0.1748 0.1731 0.1726 0.1734 0.1753 
1076.325486 0.1784 0.1824 0.1870 0.1920 0.1977 0.2039 0.2111 0.2197 0.2306 
1085.005530 0.2439 0.2603 0.2797 0.3026 0.3291 0.3592 0.3919 0.4268 0.4617 
1093.685574 0.4951 0.5240 0.5475 0.5642 0.5754 0.5811 0.5828 0.5806 0.5768 
1102.365618 0.5723 0.5687 0.5666 0.5673 0.5701 0.5749 0.5794 0.5835 0.5861 
1111.045663 0.5867 0.5801 0.5616 0.5278 0.4830 0.4344 0.3891 0.3499 0.3184 
1119.725707 0.2934 0.2741 0.2588 0.2469 0.2377 0.2306 0.2249 0.2209 0.2178 
1128.405751 0.2158 0.2145 0.2137 0.2135 0.2142 0.2153 0.2171 0.2194 0.2224 
1137.085795 0.2254 0.2293 0.2337 0.2389 0.2446 0.2512 0.2586 0.2672 0.2768 
1145.765840 0.2879 0.3000 0.3138 0.3290 0.3463 0.3653 0.3866 0.4101 0.4365 
1154.445884 0.4655 0.4984 0.5346 0.5750 0.6194 0.6698 0.7254 0.7886 0.8579 
1163.125928 0.9358 1.0199 1.1123 1.2094 1.3137 1.4172 1.5237 1.6221 1.7148 
1171.805972 1.7846 1.8422 1.8601 1.8567 1.8106 1.7478 1.6568 1.5620 1.4594 
1180.486017 1.3659 1.2796 1.2107 1.1554 1.1181 1.0959 1.0926 1.1051 1.1348 
1189.166061 1.1768 1.2319 1.2889 1.3450 1.3886 1.4176 1.4209 1.4022 1.3584 
1197.846105 1.3016 1.2311 1.1582 1.0840 1.0156 0.9522 0.8972 0.8488 0.8089 
1206.526149 0.7754 0.7494 0.7288 0.7151 0.7073 0.7077 0.7155 0.7324 0.7577 
1215.206194 0.7873 0.8071 0.8079 0.7912 0.7701 0.7508 0.7370 0.7265 0.7197 
1223.886238 0.7148 0.7127 0.7110 0.7114 0.7132 0.7173 0.7224 0.7299 0.7386 
1232.566282 0.7494 0.7607 0.7734 0.7858 0.7987 0.8102 0.8219 0.8325 0.8434 
1241.246326 0.8534 0.8648 0.8760 0.8882 0.8988 0.9096 0.9190 0.9294 0.9389 
1249.926371 0.9511 0.9647 0.9823 1.0011 1.0213 1.0389 1.0551 1.0657 1.0733 
1258.606415 1.0751 1.0744 1.0652 1.0480 1.0217 0.9890 0.9479 0.9036 0.8558 
1267.286459 0.8080 0.7610 0.7169 0.6728 0.6306 0.5896 0.5510 0.5158 0.4853 
1275.966503 0.4585 0.4361 0.4169 0.4022 0.3910 0.3826 0.3764 0.3741 0.3742 
1284.646548 0.3770 0.3807 0.3865 0.3926 0.3944 0.3913 0.3873 0.3793 0.3697 
1293.326592 0.3598 0.3506 0.3423 0.3372 0.3327 0.3295 0.3281 0.3272 0.3253 
1302.006636 0.3243 0.3250 0.3280 0.3319 0.3359 0.3397 0.3463 0.3528 0.3588 
1310.686680 0.3652 0.3729 0.3810 0.3845 0.3884 0.3944 0.4050 0.4170 0.4250 
1319.366724 0.4309 0.4266 0.4166 0.4020 0.3884 0.3740 0.3620 0.3531 0.3482 
1328.046769 0.3467 0.3496 0.3557 0.3644 0.3750 0.3889 0.4033 0.4178 0.4311 
1336.726813 0.4409 0.4394 0.4399 0.4383 0.4272 0.4116 0.4079 0.4107 0.4153 
1345.406857 0.4196 0.4237 0.4259 0.4272 0.4257 0.4215 0.4162 0.4132 0.4119 
1354.086901 0.4169 0.4260 0.4342 0.4458 0.4626 0.4764 0.4902 0.5081 0.5224 
1362.766946 0.5328 0.5297 0.5123 0.4993 0.4830 0.4674 0.4506 0.4285 0.4071 
1371.446990 0.3902 0.3769 0.3685 0.3585 0.3459 0.3397 0.3465 0.3657 0.3861 
1380.127034 0.4031 0.4068 0.3932 0.3641 0.3303 0.3004 0.2811 0.2690 0.2479 
1388.807078 0.2262 0.2133 0.2052 0.1967 0.1893 0.1875 0.1908 0.1873 0.1802 
1397.487123 0.1800 0.1800 0.1757 0.1704 0.1673 0.1677 0.1694 0.1748 0.1817 
1406.167167 0.1802 0.1803 0.1855 0.1924 0.2019 0.2117 0.2233 0.2320 0.2446 
1414.847211 0.2614 0.2837 0.3073 0.3271 0.3371 0.3545 0.3513 0.3477 0.3452 
1423.527255 0.3490 0.3474 0.3402 0.3431 0.3565 0.3780 0.4073 0.4629 0.5266 
1432.207300 0.6057 0.7206 0.8511 0.9669 1.0617 1.0816 1.0078 0.9174 0.8217 
1440.887344 0.7417 0.6823 0.6385 0.6071 0.5839 0.5660 0.5538 0.5505 0.5460 
1449.567388 0.5412 0.0850 0.0850 0.0850 0.0850 0.0850 0.0850 0.0850 0.0850 
1458.247432 0.0850 0.0850 0.0850 0.0850 0.0850 0.0850 0.0850 0.0850 0.0850 
1466.927477 0.0850 0.0850 0.0850 0.0850 0.0850 0.0850 0.0850 0.0850 0.0850 
1475.607521 0.0850 0.0850 0.0850 0.0850 0.0850 0.0850 0.0850 0.0850 0.0850 
1484.287565 0.0850 0.0850 0.0850 0.0850 0.0850 0.0850 0.0850 0.0850 0.0850 
1492.967609 0.0850 0.0850 0.0850 0.0850 0.0850 0.0850 0.0850 0.0850 0.0850 
1501.647654 0.0850 0.0850 0.0850 0.0850 0.0850 0.0850 0.0850 0.0850 0.0850 
1510.327698 0.0850 0.0850 0.0850 0.0850 0.0850 0.0850 0.0850 0.0850 0.0850 
1519.007742 0.0850 0.0850 0.0850 0.0850 0.0850 0.0850 0.0850 0.0850 0.0850 
1527.687786 0.0850 0.0850 0.0850 0.0850 0.0850 0.0850 0.0850 0.0850 0.0850 
1536.367830 0.0850 0.0850 0.0850 0.0850 0.0850 0.0850 0.0850 0.0850 0.0850 
1545.047875 0.0850 0.0850 0.0850 0.0850 0.0850 0.0850 0.0850 0.0850 0.0850 
1553.727919 0.0850 0.0850 0.0850 0.0850 0.0850 0.0850 0.0850 0.0850 0.0850 
1562.407963 0.0850 0.0850 0.0850 0.0850 0.0850 0.0850 0.0850 0.0850 0.0850 
1571.088007 0.0850 0.0850 0.0850 0.0850 0.0850 0.0850 0.0850 0.0850 0.0850 
1579.768052 0.0850 0.0850 0.0850 0.0850 0.0850 0.0850 0.0850 0.0850 0.0850 
1588.448096 0.0850 0.0850 0.0850 0.0850 0.0850 0.0850 0.0850 0.0850 0.0850 
1597.128140 0.0850 0.0850 0.0850 0.0850 0.0850 0.0850 0.0850 0.0850 0.0850 
1605.808184 0.0850 0.0850 0.0850 0.0850 0.0850 0.0850 0.0850 0.0850 0.0850 
1614.488229 0.0850 0.0850 0.0850 0.0850 0.0850 0.0850 0.0850 0.0850 0.0850 
1623.168273 0.0850 0.0850 0.0850 0.0850 0.0850 0.0850 0.0850 0.0850 0.0850 
1631.848317 0.0850 0.0850 0.0850 0.0850 0.0850 0.0850 0.0850 0.0850 0.0850 
1640.528361 0.0850 0.0850 0.0850 0.0850 0.0850 0.0850 0.0850 0.0850 0.0850 
1649.208406 0.0850 0.1156 0.1114 0.1022 0.0987 0.1211 0.1243 0.1217 0.1221 
1657.888450 0.1217 0.1210 0.1216 0.1236 0.1229 0.1213 0.1245 0.1256 0.1265 
1666.568494 0.1275 0.1298 0.1327 0.1324 0.1318 0.1346 0.1386 0.1373 0.1355 
1675.248538 0.1402 0.1484 0.1470 0.1491 0.1550 0.1690 0.1700 0.1632 0.1626 
1683.928583 0.1716 0.1773 0.1795 0.1824 0.1934 0.2013 0.2017 0.2052 0.2089 
1692.608627 0.2137 0.2200 0.2231 0.2298 0.2512 0.2562 0.2579 0.2568 0.2686 
1701.288671 0.2875 0.2882 0.2917 0.2974 0.3053 0.3104 0.3265 0.3354 0.3465 
1709.968715 0.3644 0.3848 0.4020 0.4258 0.4513 0.4903 0.5287 0.5521 0.5958 
1718.648760 0.6812 0.7255 0.7771 0.8464 0.9300 1.0278 1.1436 1.2475 1.3807 
1727.328804 1.5169 1.6712 1.7933 1.9682 2.0685 2.1407 1.9781 1.7235 1.9372 
1736.008848 2.1954 2.2494 2.2454 2.1480 2.0295 2.1552 2.2432 2.1652 2.1324 
1744.688892 2.1906 2.2098 2.1544 2.1161 2.0640 2.0942 2.0192 1.8680 1.6467 
1753.368936 1.4779 1.2874 1.1414 1.0162 0.8799 0.7817 0.7028 0.6358 0.5886 
1762.048981 0.5298 0.4793 0.4455 0.4137 0.3864 0.3657 0.3521 0.3272 0.3048 
1770.729025 0.2887 0.2732 0.2584 0.2490 0.2416 0.2369 0.2262 0.2168 0.2121 
1779.409069 0.2073 0.2014 0.1966 0.1880 0.1817 0.1801 0.1796 0.1697 0.1632 
1788.089113 0.1597 0.1573 0.1565 0.1578 0.1513 0.1470 0.1425 0.1409 0.1446 
1796.769158 0.1412 0.1324 0.1280 0.1271 0.1289 0.1319 0.1303 0.1212 0.1162 
1805.449202 0.1142 0.1132 0.1147 0.1137 0.1087 0.1084 0.1100 0.1100 0.1057 
1814.129246 0.1015 0.1000 0.0995 0.1014 0.1009 0.0963 0.0945 0.0939 0.0945 
1822.809290 0.0953 0.0932 0.0946 0.0978 0.0915 0.0883 0.0878 0.0904 0.0911 
1831.489335 0.0878 0.0871 0.0885 0.0863 0.0848 0.0858 0.0881 0.0859 0.0839 
1840.169379 0.0833 0.0846 0.0878 0.0869 0.0870 0.0915 0.0879 0.0864 0.0896 
1848.849423 0.0871 0.0823 0.0810 0.0807 0.0808 0.0805 0.0804 0.0800 0.0801 
1857.529467 0.0807 0.0825 0.0818 0.0816 0.0826 0.0812 0.0795 0.0797 0.0793 
1866.209512 0.0809 0.0822 0.0844 0.0860 0.0855 0.0825 0.0788 0.0769 0.0767 
1874.889556 0.0763 0.0762 0.0760 0.0760 0.0768 0.0773 0.0758 0.0753 0.0751 
1883.569600 0.0754 0.0762 0.0765 0.0753 0.0751 0.0755 0.0796 0.0797 0.0761 
1892.249644 0.0754 0.0758 0.0768 0.0793 0.0781 0.0760 0.0757 0.0752 0.0751 
1900.929689 0.0755 0.0760 0.0754 0.0752 0.0751 0.0749 0.0754 0.0777 0.0782 
1909.609733 0.0788 0.0790 0.0761 0.0755 0.0756 0.0762 0.0763 0.0762 0.0776 
1918.289777 0.0815 0.0793 0.0773 0.0783 0.0836 0.0872 0.0818 0.0780 0.0776 
1926.969821 0.0777 0.0780 0.0779 0.0780 0.0781 0.0785 0.0795 0.0797 0.0790 
1935.649866 0.0791 0.0794 0.0798 0.0801 0.0804 0.0812 0.0841 0.0899 0.0886 
1944.329910 0.0835 0.0839 0.0843 0.0840 0.0838 0.0847 0.0847 0.0843 0.0839 
1953.009954 0.0839 0.0841 0.0851 0.0846 0.0845 0.0869 0.0883 0.0852 0.0833 
1961.689998 0.0826 0.0818 0.0813 0.0813 0.0825 0.0854 0.0871 0.0839 0.0811 
1970.370042 0.0809 0.0806 0.0807 0.0806 0.0807 0.0806 0.0808 0.0807 0.0808 
1979.050087 0.0806 0.0806 0.0805 0.0807 0.0805 0.0805 0.0803 0.0804 0.0805 
1987.730131 0.0826 0.0842 0.0820 0.0814 0.0862 0.0891 0.0845 0.0820 0.0820 
1996.410175 0.0823 0.0825 0.0830 0.0834 0.0834 0.0836 0.0839 0.0843 0.0845 
2005.090219 0.0849 0.0852 0.0861 0.0867 0.0868 0.0867 0.0870 0.0872 0.0876 
2013.770264 0.0878 0.0881 0.0894 0.0929 0.0935 0.0923 0.0910 0.0898 0.0898 
2022.450308 0.0906 0.0912 0.0908 0.0908 0.0912 0.0919 0.0928 0.0930 0.0922 
2031.130352 0.0919 0.0919 0.0919 0.0919 0.0918 0.0917 0.0917 0.0915 0.0912 
2039.810396 0.0913 0.0930 0.0937 0.0912 0.0903 0.0901 0.0898 0.0897 0.0894 
2048.490441 0.0890 0.0889 0.0887 0.0886 0.0885 0.0885 0.0884 0.0884 0.0883 
2057.170485 0.0883 0.0882 0.0883 0.0886 0.0886 0.0882 0.0881 0.0891 0.0914 
2065.850529 0.0906 0.0883 0.0874 0.0874 0.0872 0.0869 0.0868 0.0869 0.0869 
2074.530573 0.0867 0.0863 0.0863 0.0865 0.0865 0.0861 0.0858 0.0860 0.0861 
2083.210618 0.0856 0.0853 0.0853 0.0856 0.0856 0.0851 0.0851 0.0864 0.0858 
2091.890662 0.0840 0.0835 0.0836 0.0837 0.0832 0.0826 0.0824 0.0826 0.0823 
2100.570706 0.0816 0.0812 0.0813 0.0815 0.0807 0.0803 0.0804 0.0808 0.0802 
2109.250750 0.0796 0.0796 0.0801 0.0798 0.0792 0.0795 0.0804 0.0800 0.0789 
2117.930795 0.0785 0.0789 0.0792 0.0787 0.0782 0.0785 0.0789 0.0786 0.0781 
2126.610839 0.0782 0.0786 0.0784 0.0780 0.0781 0.0784 0.0783 0.0779 0.0780 
2135.290883 0.0785 0.0789 0.0783 0.0780 0.0783 0.0783 0.0778 0.0778 0.0777 
2143.970927 0.0777 0.0777 0.0777 0.0778 0.0778 0.0775 0.0775 0.0777 0.0776 
2152.650972 0.0774 0.0775 0.0777 0.0774 0.0770 0.0773 0.0775 0.0770 0.0768 
2161.331016 0.0774 0.0775 0.0768 0.0765 0.0771 0.0770 0.0764 0.0765 0.0771 
2170.011060 0.0768 0.0762 0.0766 0.0771 0.0765 0.0762 0.0768 0.0769 0.0762 
2178.691104 0.0762 0.0767 0.0765 0.0760 0.0764 0.0766 0.0761 0.0760 0.0766 
2187.371148 0.0763 0.0757 0.0760 0.0762 0.0757 0.0756 0.0760 0.0758 0.0754 
2196.051193 0.0757 0.0758 0.0755 0.0755 0.0758 0.0756 0.0754 0.0756 0.0756 
2204.731237 0.0754 0.0755 0.0754 0.0752 0.0751 0.0752 0.0751 0.0750 0.0749 
2213.411281 0.0749 0.0748 0.0748 0.0747 0.0746 0.0747 0.0747 0.0744 0.0744 
2222.091325 0.0743 0.0742 0.0741 0.0741 0.0740 0.0740 0.0739 0.0739 0.0738 
2230.771370 0.0740 0.0739 0.0739 0.0739 0.0739 0.0740 0.0740 0.0740 0.0741 
2239.451414 0.0741 0.0741 0.0741 0.0742 0.0742 0.0742 0.0742 0.0743 0.0743 
2248.131458 0.0744 0.0743 0.0746 0.0746 0.0748 0.0748 0.0750 0.0751 0.0753 
2256.811502 0.0753 0.0754 0.0754 0.0756 0.0756 0.0757 0.0758 0.0760 0.0761 
2265.491547 0.0762 0.0762 0.0763 0.0764 0.0766 0.0766 0.0769 0.0770 0.0771 
2274.171591 0.0772 0.0774 0.0775 0.0778 0.0780 0.0781 0.0784 0.0786 0.0790 
2282.851635 0.0793 0.0795 0.0798 0.0797 0.0801 0.0801 0.0804 0.0809 0.0808 
2291.531679 0.0816 0.0816 0.0823 0.0828 0.0830 0.0843 0.0840 0.0856 0.0853 
2300.211724 0.0865 0.0869 0.0869 0.0880 0.0878 0.0896 0.0891 0.0908 0.0901 
2308.891768 0.0909 0.0908 0.0907 0.0909 0.0892 0.0896 0.0869 0.0872 0.0856 
2317.571812 0.0865 0.0855 0.0863 0.0848 0.0853 0.0836 0.0833 0.0810 0.0790 
2326.251856 0.0769 0.0758 0.0750 0.0745 0.0738 0.0728 0.0712 0.0695 0.0677 
2334.931901 0.0661 0.0658 0.0659 0.0649 0.0648 0.0653 0.0652 0.0654 0.0668 
2343.611945 0.0694 0.0726 0.0753 0.0781 0.0807 0.0853 0.0857 0.0827 0.0789 
2352.291989 0.0744 0.0703 0.0688 0.0671 0.0637 0.0614 0.0610 0.0608 0.0593 
2360.972033 0.0591 0.0595 0.0600 0.0611 0.0628 0.0643 0.0663 0.0686 0.0709 
2369.652078 0.0732 0.0756 0.0780 0.0803 0.0825 0.0845 0.0865 0.0882 0.0897 
2378.332122 0.0906 0.0912 0.0910 0.0903 0.0893 0.0880 0.0866 0.0852 0.0841 
2387.012166 0.0832 0.0825 0.0821 0.0818 0.0816 0.0815 0.0815 0.0815 0.0818 
2395.692210 0.0820 0.0822 0.0824 0.0828 0.0830 0.0832 0.0832 0.0831 0.0829 
2404.372254 0.0827 0.0824 0.0822 0.0820 0.0819 0.0818 0.0817 0.0816 0.0815 
2413.052299 0.0815 0.0814 0.0813 0.0813 0.0813 0.0813 0.0813 0.0813 0.0813 
2421.732343 0.0813 0.0813 0.0814 0.0815 0.0816 0.0817 0.0817 0.0817 0.0819 
2430.412387 0.0820 0.0822 0.0823 0.0824 0.0825 0.0826 0.0827 0.0828 0.0829 
2439.092431 0.0830 0.0830 0.0831 0.0832 0.0832 0.0831 0.0831 0.0830 0.0829 
2447.772476 0.0828 0.0826 0.0825 0.0823 0.0821 0.0819 0.0817 0.0816 0.0815 
2456.452520 0.0813 0.0812 0.0811 0.0808 0.0807 0.0806 0.0805 0.0804 0.0803 
2465.132564 0.0802 0.0801 0.0799 0.0797 0.0795 0.0794 0.0793 0.0793 0.0791 
2473.812608 0.0790 0.0789 0.0789 0.0787 0.0786 0.0785 0.0784 0.0783 0.0782 
2482.492653 0.0781 0.0781 0.0780 0.0779 0.0778 0.0778 0.0777 0.0776 0.0776 
2491.172697 0.0775 0.0774 0.0774 0.0773 0.0773 0.0772 0.0772 0.0771 0.0771 
2499.852741 0.0771 0.0771 0.0771 0.0770 0.0770 0.0770 0.0770 0.0770 0.0770 
2508.532785 0.0771 0.0771 0.0771 0.0772 0.0772 0.0773 0.0773 0.0774 0.0775 
2517.212830 0.0775 0.0776 0.0777 0.0778 0.0778 0.0778 0.0778 0.0778 0.0778 
2525.892874 0.0779 0.0779 0.0778 0.0779 0.0780 0.0780 0.0780 0.0781 0.0782 
2534.572918 0.0782 0.0782 0.0784 0.0785 0.0785 0.0786 0.0787 0.0788 0.0789 
2543.252962 0.0791 0.0791 0.0793 0.0794 0.0796 0.0797 0.0799 0.0801 0.0802 
2551.933007 0.0802 0.0803 0.0804 0.0805 0.0806 0.0808 0.0809 0.0811 0.0811 
2560.613051 0.0813 0.0814 0.0816 0.0818 0.0819 0.0821 0.0823 0.0824 0.0826 
2569.293095 0.0827 0.0829 0.0830 0.0832 0.0833 0.0834 0.0834 0.0835 0.0835 
2577.973139 0.0836 0.0837 0.0838 0.0838 0.0839 0.0839 0.0840 0.0840 0.0841 
2586.653184 0.0842 0.0844 0.0846 0.0848 0.0849 0.0850 0.0851 0.0851 0.0852 
2595.333228 0.0852 0.0852 0.0851 0.0849 0.0848 0.0846 0.0845 0.0843 0.0842 
2604.013272 0.0840 0.0839 0.0837 0.0836 0.0834 0.0833 0.0831 0.0831 0.0830 
2612.693316 0.0829 0.0827 0.0827 0.0827 0.0827 0.0827 0.0826 0.0826 0.0826 
2621.373360 0.0826 0.0826 0.0826 0.0826 0.0826 0.0827 0.0828 0.0829 0.0830 
2630.053405 0.0832 0.0833 0.0836 0.0837 0.0839 0.0839 0.0841 0.0843 0.0846 
2638.733449 0.0848 0.0850 0.0851 0.0853 0.0855 0.0858 0.0860 0.0863 0.0865 
2647.413493 0.0868 0.0871 0.0875 0.0878 0.0881 0.0885 0.0889 0.0891 0.0893 
2656.093537 0.0894 0.0895 0.0895 0.0895 0.0895 0.0896 0.0895 0.0895 0.0894 
2664.773582 0.0895 0.0894 0.0895 0.0895 0.0896 0.0897 0.0898 0.0898 0.0900 
2673.453626 0.0900 0.0900 0.0900 0.0901 0.0900 0.0899 0.0898 0.0897 0.0896 
2682.133670 0.0894 0.0893 0.0892 0.0891 0.0890 0.0888 0.0886 0.0884 0.0883 
2690.813714 0.0882 0.0880 0.0879 0.0879 0.0877 0.0876 0.0875 0.0875 0.0874 
2699.493759 0.0874 0.0873 0.0872 0.0871 0.0871 0.0870 0.0870 0.0870 0.0870 
2708.173803 0.0870 0.0870 0.0870 0.0871 0.0871 0.0873 0.0874 0.0876 0.0878 
2716.853847 0.0880 0.0882 0.0885 0.0887 0.0890 0.0893 0.0895 0.0898 0.0902 
2725.533891 0.0905 0.0908 0.0911 0.0915 0.0921 0.0928 0.0935 0.0942 0.0949 
2734.213936 0.0956 0.0960 0.0964 0.0964 0.0963 0.0960 0.0958 0.0956 0.0953 
2742.893980 0.0949 0.0947 0.0944 0.0941 0.0938 0.0933 0.0929 0.0927 0.0924 
2751.574024 0.0922 0.0920 0.0918 0.0917 0.0917 0.0917 0.0917 0.0917 0.0918 
2760.254068 0.0918 0.0920 0.0921 0.0923 0.0925 0.0927 0.0929 0.0931 0.0933 
2768.934113 0.0935 0.0937 0.0940 0.0943 0.0946 0.0948 0.0952 0.0954 0.0957 
2777.614157 0.0961 0.0966 0.0970 0.0975 0.0980 0.0985 0.0990 0.0996 0.1002 
2786.294201 0.1008 0.1014 0.1020 0.1025 0.1031 0.1036 0.1041 0.1047 0.1053 
2794.974245 0.1059 0.1065 0.1073 0.1080 0.1086 0.1094 0.1101 0.1110 0.1118 
2803.654290 0.1126 0.1134 0.1142 0.1150 0.1159 0.1168 0.1178 0.1188 0.1200 
2812.334334 0.1212 0.1227 0.1243 0.1260 0.1277 0.1295 0.1314 0.1333 0.1353 
2821.014378 0.1373 0.1394 0.1417 0.1440 0.1466 0.1493 0.1521 0.1550 0.1581 
2829.694422 0.1613 0.1646 0.1677 0.1711 0.1748 0.1790 0.1838 0.1897 0.1970 
2838.374466 0.2059 0.2162 0.2279 0.2405 0.2530 0.2637 0.2718 0.2765 0.2786 
2847.054511 0.2789 0.2790 0.2799 0.2829 0.2881 0.2960 0.3066 0.3202 0.3365 
2855.734555 0.3557 0.3772 0.4013 0.4270 0.4541 0.4809 0.5072 0.5311 0.5526 
2864.414599 0.5700 0.5840 0.5936 0.6007 0.6063 0.6135 0.6236 0.6397 0.6613 
2873.094643 0.6880 0.7134 0.7307 0.7293 0.7071 0.6671 0.6189 0.5688 0.5234 
2881.774688 0.4839 0.4517 0.4258 0.4057 0.3900 0.3784 0.3698 0.3638 0.3598 
2890.454732 0.3579 0.3575 0.3590 0.3621 0.3671 0.3734 0.3816 0.3912 0.4024 
2899.134776 0.4140 0.4261 0.4379 0.4491 0.4592 0.4688 0.4774 0.4858 0.4937 
2907.814820 0.5019 0.5095 0.5175 0.5253 0.5337 0.5424 0.5521 0.5622 0.5743 
2916.494865 0.5875 0.6028 0.6199 0.6398 0.6615 0.6859 0.7120 0.7409 0.7716 
2925.174909 0.8054 0.8402 0.8777 0.9158 0.9553 0.9927 1.0294 1.0598 1.0849 
2933.854953 1.1005 1.1097 1.1085 1.1013 1.0852 1.0665 1.0450 1.0268 1.0108 
2942.534997 1.0013 0.9973 1.0040 1.0181 1.0423 1.0764 1.1245 1.1799 1.2430 
2951.215042 1.3032 1.3607 1.4077 1.4490 1.4786 1.5078 1.5310 1.5585 1.5787 
2959.895086 1.5966 1.5996 1.5949 1.5723 1.5431 1.4963 1.4425 1.3741 1.3018 
2968.575130 1.2224 1.1436 1.0638 0.9881 0.9152 0.8487 0.7869 0.7325 0.6831 
2977.255174 0.6392 0.5995 0.5653 0.5354 0.5095 0.4866 0.4678 0.4515 0.4380 
2985.935219 0.4266 0.4181 0.4112 0.4060 0.4018 0.3989 0.3963 0.3944 0.3924 
2994.615263 0.3901 0.3864 0.3819 0.3763 0.3704 0.3637 0.3564 0.3485 0.3407 
3003.295307 0.3328 0.3258 0.3189 0.3123 0.3065 0.3020 0.2985 0.2963 0.2949 
3011.975351 0.2951 0.2965 0.2984 0.3017 0.3066 0.3117 0.3176 0.3241 0.3307 
3020.655396 0.3366 0.3418 0.3457 0.3477 0.3473 0.3454 0.3410 0.3344 0.3257 
3029.335440 0.3154 0.3044 0.2932 0.2811 0.2688 0.2575 0.2467 0.2365 0.2272 
3038.015484 0.2187 0.2110 0.2039 0.1976 0.1918 0.1866 0.1819 0.1777 0.1737 
3046.695528 0.1703 0.1671 0.1646 0.1620 0.1593 0.1570 0.1550 0.1531 0.1513 
3055.375572 0.1498 0.1488 0.1471 0.1454 0.1442 0.1433 0.1422 0.1413 0.1401 
3064.055617 0.1395 0.1390 0.1379 0.1369 0.1361 0.1353 0.1348 0.1341 0.1335 
3072.735661 0.1329 0.1325 0.1320 0.1314 0.1307 0.1304 0.1300 0.1297 0.1291 
3081.415705 0.1285 0.1282 0.1276 0.1269 0.1263 0.1259 0.1258 0.1255 0.1251 
3090.095749 0.1247 0.1243 0.1240 0.1238 0.1235 0.1230 0.1229 0.1230 0.1226 
3098.775794 0.1222 0.1220 0.1216 0.1213 0.1210 0.1207 0.1203 0.1202 0.1202 
3107.455838 0.1202 0.1200 0.1196 0.1195 0.1193 0.1191 0.1188 0.1185 0.1185 
3116.135882 0.1187 0.1185 0.1184 0.1185 0.1179 0.1173 0.1173 0.1176 0.1173 
3124.815926 0.1170 0.1169 0.1169 0.1169 0.1167 0.1165 0.1163 0.1162 0.1162 
3133.495971 0.1165 0.1163 0.1163 0.1164 0.1165 0.1163 0.1162 0.1161 0.1161 
3142.176015 0.1162 0.1163 0.1162 0.1163 0.1163 0.1163 0.1163 0.1165 0.1166 
3150.856059 0.1168 0.1169 0.1169 0.1168 0.1169 0.1170 0.1171 0.1172 0.1173 
3159.536103 0.1175 0.1176 0.1177 0.1178 0.1179 0.1181 0.1183 0.1185 0.1187 
3168.216148 0.1189 0.1191 0.1193 0.1194 0.1196 0.1197 0.1199 0.1200 0.1202 
3176.896192 0.1201 0.1202 0.1204 0.1204 0.1204 0.1205 0.1205 0.1204 0.1205 
3185.576236 0.1207 0.1207 0.1207 0.1206 0.1206 0.1207 0.1209 0.1210 0.1210 
3194.256280 0.1210 0.1211 0.1211 0.1213 0.1215 0.1216 0.1215 0.1215 0.1214 
3202.936325 0.1215 0.1215 0.1214 0.1213 0.1214 0.1214 0.1214 0.1216 0.1217 
3211.616369 0.1216 0.1215 0.1213 0.1215 0.1216 0.1216 0.1215 0.1215 0.1217 
3220.296413 0.1219 0.1216 0.1214 0.1214 0.1214 0.1215 0.1216 0.1218 0.1220 
3228.976457 0.1218 0.1219 0.1221 0.1220 0.1219 0.1218 0.1217 0.1217 0.1218 
3237.656502 0.1219 0.1218 0.1219 0.1221 0.1221 0.1221 0.1220 0.1221 0.1226 
3246.336546 0.1225 0.1223 0.1223 0.1224 0.1224 0.1225 0.1225 0.1226 0.1229 
3255.016590 0.1230 0.1227 0.1228 0.1229 0.1228 0.1227 0.1228 0.1228 0.1229 
3263.696634 0.1229 0.1231 0.1232 0.1232 0.1232 0.1234 0.1235 0.1236 0.1236 
3272.376678 0.1237 0.1240 0.1243 0.1241 0.1246 0.1246 0.1244 0.1244 0.1244 
3281.056723 0.1243 0.1246 0.1252 0.1256 0.1253 0.1250 0.1250 0.1252 0.1255 
3289.736767 0.1258 0.1260 0.1263 0.1264 0.1265 0.1264 0.1264 0.1264 0.1269 
3298.416811 0.1272 0.1272 0.1273 0.1273 0.1274 0.1277 0.1277 0.1279 0.1280 
3307.096855 0.1283 0.1289 0.1294 0.1296 0.1298 0.1295 0.1296 0.1298 0.1298 
3315.776900 0.1300 0.1303 0.1304 0.1305 0.1306 0.1308 0.1309 0.1312 0.1315 
3324.456944 0.1320 0.1322 0.1326 0.1329 0.1329 0.1329 0.1331 0.1332 0.1333 
3333.136988 0.1336 0.1344 0.1349 0.1352 0.1360 0.1353 0.1345 0.1348 0.1350 
3341.817032 0.1352 0.1352 0.1352 0.1353 0.1356 0.1359 0.1363 0.1366 0.1368 
3350.497077 0.1369 0.1371 0.1373 0.1375 0.1378 0.1387 0.1392 0.1389 0.1386 
3359.177121 0.1387 0.1391 0.1395 0.1402 0.1398 0.1395 0.1399 0.1402 0.1407 
3367.857165 0.1413 0.1413 0.1409 0.1407 0.1408 0.1410 0.1412 0.1416 0.1418 
3376.537209 0.1418 0.1420 0.1425 0.1426 0.1426 0.1426 0.1430 0.1436 0.1444 
3385.217254 0.1445 0.1442 0.1441 0.1443 0.1446 0.1450 0.1455 0.1467 0.1482 
3393.897298 0.1472 0.1460 0.1462 0.1476 0.1485 0.1476 0.1475 0.1480 0.1482 
3402.577342 0.1478 0.1481 0.1482 0.1483 0.1486 0.1491 0.1493 0.1496 0.1498 
3411.257386 0.1503 0.1507 0.1511 0.1512 0.1513 0.1516 0.1518 0.1522 0.1533 
3419.937431 0.1555 0.1567 0.1560 0.1558 0.1555 0.1550 0.1552 0.1559 0.1567 
3428.617475 0.1572 0.1574 0.1581 0.1588 0.1593 0.1600 0.1604 0.1610 0.1620 
3437.297519 0.1625 0.1628 0.1630 0.1632 0.1639 0.1659 0.1674 0.1669 0.1677 
3445.977563 0.1694 0.1728 0.1735 0.1707 0.1701 0.1705 0.1713 0.1721 0.1729 
3454.657608 0.1735 0.1746 0.1755 0.1762 0.1775 0.1784 0.1788 0.1790 0.1795 
3463.337652 0.1796 0.1785 0.1786 0.1795 0.1802 0.1786 0.1772 0.1766 0.1761 
3472.017696 0.1748 0.1738 0.1735 0.1737 0.1723 0.1707 0.1700 0.1700 0.1710 
3480.697740 0.1721 0.1708 0.1697 0.1675 0.1662 0.1664 0.1658 0.1656 0.1665 
3489.377784 0.1643 0.1630 0.1630 0.1622 0.1616 0.1617 0.1625 0.1633 0.1630 
3498.057829 0.1614 0.1611 0.1623 0.1649 0.1693 0.1707 0.1680 0.1643 0.1616 
3506.737873 0.1601 0.1601 0.1636 0.1683 0.1654 0.1620 0.1612 0.1610 0.1605 
3515.417917 0.1601 0.1604 0.1616 0.1619 0.1620 0.1615 0.1614 0.1645 0.1721 
3524.097961 0.1745 0.1712 0.1685 0.1685 0.1687 0.1674 0.1657 0.1651 0.1646 
3532.778006 0.1626 0.1620 0.1627 0.1671 0.1713 0.1668 0.1628 0.1625 0.1624 
3541.458050 0.1624 0.1633 0.1662 0.1713 0.1780 0.1780 0.1761 0.1694 0.1633 
3550.138094 0.1621 0.1625 0.1662 0.1681 0.1667 0.1627 0.1595 0.1590 0.1591 
3558.818138 0.1597 0.1634 0.1646 0.1612 0.1598 0.1592 0.1611 0.1708 0.1840 
3567.498183 0.1809 0.1755 0.1631 0.1571 0.1549 0.1519 0.1513 0.1512 0.1506 
3576.178227 0.1494 0.1497 0.1488 0.1488 0.1514 0.1500 0.1468 0.1463 0.1464 
3584.858271 0.1460 0.1492 0.1617 0.1650 0.1611 0.1515 0.1436 0.1414 0.1430 
3593.538315 0.1469 0.1457 0.1493 0.1475 0.1414 0.1412 0.1413 0.1399 0.1411 
3602.218360 0.1403 0.1394 0.1370 0.1357 0.1369 0.1444 0.1449 0.1444 0.1461 
3610.898404 0.1389 0.1384 0.1451 0.1444 0.1447 0.1416 0.1361 0.1402 0.1420 
3619.578448 0.1423 0.1426 0.1388 0.1352 0.1337 0.1332 0.1338 0.1363 0.1342 
3628.258492 0.1367 0.1512 0.1482 0.1389 0.1341 0.1337 0.1372 0.1350 0.1318 
3636.938537 0.1306 0.1308 0.1312 0.1308 0.1313 0.1335 0.1351 0.1320 0.1297 
3645.618581 0.1296 0.1330 0.1394 0.1353 0.1349 0.1366 0.1376 0.1324 0.1284 
3654.298625 0.1262 0.1241 0.1289 0.1309 0.1262 0.1252 0.1255 0.1250 0.1241 
3662.978669 0.1239 0.1236 0.1237 0.1236 0.1224 0.1202 0.1226 0.1246 0.1286 
3671.658714 0.1289 0.1234 0.1201 0.1188 0.1262 0.1317 0.1292 0.1252 0.1258 
3680.338758 0.1274 0.1260 0.1255 0.1257 0.1266 0.1271 0.1259 0.1224 0.1205 
3689.018802 0.1263 0.1235 0.1253 0.1275 0.1242 0.1232 0.1217 0.1202 0.1202 
3697.698846 0.1182 0.1166 0.1158 0.1130 0.1145 0.1163 0.1121 0.1104 0.1110 
3706.378890 0.1112 0.1091 0.1052 0.1055 0.1092 0.1076 0.1127 0.1158 0.1126 
3715.058935 0.1133 0.1104 0.1067 0.1059 0.1101 0.1107 0.1059 0.1084 0.1171 
3723.738979 0.1139 0.1135 0.1165 0.1177 0.1158 0.1089 0.1053 0.1027 0.0986 
3732.419023 0.1022 0.1046 0.1125 0.1311 0.1243 0.1149 0.1092 0.1085 0.1070 
3741.099067 0.1095 0.1077 0.1011 0.1003 0.1195 0.1118 0.1069 0.1030 0.0968 
3749.779112 0.1017 0.1014 0.1006 0.1107 0.1091 0.1055 0.1022 0.1040 0.1058 
3758.459156 0.1048 0.1066 0.1061 0.1029 0.1029 0.1032 0.1027 0.1039 0.1085 
3767.139200 0.1061 0.1025 0.0998 0.1039 0.1062 0.1046 0.1035 0.1032 0.1030 
3775.819244 0.1028 0.1025 0.1015 0.0996 0.1032 0.1049 0.1036 0.1034 0.1022 
3784.499289 0.1041 0.1068 0.1063 0.1049 0.1037 0.1036 0.1032 0.1026 0.1025 
3793.179333 0.1028 0.1022 0.1000 0.0996 0.1048 0.1064 0.1036 0.0979 0.0944 
3801.859377 0.0999 0.1043 0.1040 0.1013 0.0969 0.0963 0.1029 0.1025 0.1022 
3810.539421 0.1025 0.1024 0.1024 0.1018 0.0986 0.0945 0.1012 0.1038 0.1025 
3819.219466 0.1004 0.0959 0.0984 0.1061 0.1052 0.1041 0.1027 0.1014 0.1040 
3827.899510 0.1051 0.1038 0.1016 0.0988 0.1019 0.1036 0.1000 0.1008 0.1037 
3836.579554 0.0979 0.0972 0.1054 0.1061 0.1095 0.1095 0.1040 0.1043 0.1091 
3845.259598 0.1061 0.1039 0.1033 0.1032 0.1049 0.1056 0.1007 0.1010 0.1006 
3853.939643 0.1041 0.1125 0.1061 0.1080 0.1110 0.1063 0.1035 0.1025 0.1062 
3862.619687 0.1082 0.1042 0.1072 0.1135 0.1089 0.1043 0.1020 0.1062 0.1177 
3871.299731 0.1149 0.1082 0.1044 0.1103 0.1096 0.1046 0.1037 0.1033 0.1024 
3879.979775 0.1087 0.1189 0.1117 0.1087 0.1100 0.1073 0.1130 0.1135 0.1062 
3888.659820 0.1039 0.1025 0.1033 0.1114 0.1112 0.1087 0.1099 0.1070 0.1049 
3897.339864 0.1059 0.1087 0.1151 0.1138 0.1110 0.1201 0.1152 0.1141 0.1187 
3906.019908 0.1166 0.1104 0.1051 0.1040 0.1038 0.1038 0.1040 0.1045 0.1048 
3914.699952 0.1048 0.1071 0.1148 0.1175 0.1098 0.1087 0.1124 0.1081 0.1061 
3923.379996 0.1102 0.1158 0.1160 0.1097 0.1059 0.1060 0.1073 0.1108 0.1132 
3932.060041 0.1174 0.1183 0.1123 0.1085 0.1061 0.1059 0.1073 0.1084 0.1073 
3940.740085 0.1067 0.1089 0.1173 0.1179 0.1117 0.1083 0.1091 0.1156 0.1167 
3949.420129 0.1144 0.1144 0.1095 0.1065 0.1069 0.1069 0.1073 0.1087 0.1101 
3958.100173 0.1098 0.1092 0.1094 0.1110 0.1147 0.1130 0.1098 0.1095 0.1088 
3966.780218 0.1084 0.1091 0.1115 0.1124 0.1106 0.1105 0.1113 0.1107 0.1116 
3975.460262 0.1140 0.1142 0.1110 0.1091 0.1094 0.1099 0.1099 0.1099 0.1092 
3984.140306 0.1086 0.1088 0.1088 0.1084 0.1083 0.1093 0.1114 0.1124 0.1104 
3992.820350 0.1088 0.1086 0.1093 0.1094 0.1081 0.1076 0.1077 0.1078 0.1078 
##END=
