##JCAMP-DX=5.01
##FILENAME=KAM-08.jdx
##XUNITS=1/CM
##YUNITS=ABSORBANCE
##FIRSTX=399.282035
##LASTX=4000.535945
##MAXX=4000.535945
##MINX=399.282035
##FIRSTY=0.0026
##LASTY=0.0130
##MAXY=1.1958
##MINY=0.0001
##NPOINTS=3735
##XFACTOR=1
##YFACTOR=1
##XYDATA=(X++(Y..Y))
399.282035 0.0026 0.0101 0.0016 0.0036 0.0044 0.0001 0.0010 0.0008 0.0121 0.0157 
408.926529 0.0140 0.0159 0.0186 0.0187 0.0196 0.0279 0.0275 0.0222 0.0162 0.0131 
418.571022 0.0060 0.0018 0.0112 0.0193 0.0205 0.0160 0.0152 0.0171 0.0164 0.0198 
428.215516 0.0213 0.0181 0.0171 0.0181 0.0209 0.0221 0.0216 0.0214 0.0202 0.0190 
437.860009 0.0200 0.0200 0.0206 0.0226 0.0184 0.0165 0.0168 0.0170 0.0173 0.0153 
447.504503 0.0158 0.0192 0.0195 0.0185 0.0194 0.0211 0.0202 0.0187 0.0176 0.0177 
457.148997 0.0147 0.0150 0.0207 0.0232 0.0237 0.0223 0.0209 0.0197 0.0192 0.0181 
466.793490 0.0183 0.0192 0.0188 0.0182 0.0177 0.0160 0.0167 0.0188 0.0184 0.0187 
476.437984 0.0196 0.0204 0.0218 0.0222 0.0224 0.0233 0.0238 0.0231 0.0213 0.0212 
486.082477 0.0220 0.0195 0.0190 0.0203 0.0214 0.0224 0.0225 0.0224 0.0219 0.0211 
495.726971 0.0210 0.0211 0.0212 0.0208 0.0204 0.0208 0.0209 0.0199 0.0203 0.0211 
505.371465 0.0210 0.0197 0.0199 0.0199 0.0194 0.0195 0.0197 0.0208 0.0216 0.0206 
515.015958 0.0201 0.0204 0.0196 0.0190 0.0187 0.0189 0.0189 0.0180 0.0184 0.0186 
524.660452 0.0165 0.0151 0.0164 0.0176 0.0169 0.0163 0.0174 0.0181 0.0194 0.0190 
534.304945 0.0176 0.0172 0.0178 0.0179 0.0179 0.0177 0.0181 0.0182 0.0180 0.0185 
543.949439 0.0187 0.0183 0.0175 0.0177 0.0182 0.0176 0.0178 0.0185 0.0189 0.0185 
553.593933 0.0185 0.0188 0.0183 0.0178 0.0181 0.0184 0.0191 0.0198 0.0203 0.0198 
563.238426 0.0197 0.0194 0.0192 0.0196 0.0204 0.0206 0.0202 0.0202 0.0209 0.0213 
572.882920 0.0220 0.0226 0.0233 0.0243 0.0248 0.0251 0.0257 0.0260 0.0263 0.0265 
582.527413 0.0271 0.0275 0.0275 0.0277 0.0284 0.0284 0.0282 0.0284 0.0284 0.0283 
592.171907 0.0284 0.0283 0.0281 0.0283 0.0289 0.0285 0.0285 0.0287 0.0291 0.0293 
601.816401 0.0294 0.0299 0.0303 0.0304 0.0303 0.0301 0.0304 0.0302 0.0300 0.0299 
611.460894 0.0299 0.0296 0.0289 0.0280 0.0275 0.0272 0.0264 0.0266 0.0278 0.0279 
621.105388 0.0275 0.0273 0.0271 0.0269 0.0270 0.0269 0.0271 0.0273 0.0271 0.0267 
630.749881 0.0266 0.0266 0.0277 0.0284 0.0284 0.0282 0.0281 0.0274 0.0271 0.0276 
640.394375 0.0277 0.0272 0.0272 0.0267 0.0260 0.0255 0.0251 0.0243 0.0234 0.0229 
650.038869 0.0010 0.0010 0.0010 0.0010 0.0010 0.0010 0.0010 0.0010 0.0010 0.0010 
659.683362 0.0010 0.0010 0.0010 0.0010 0.0010 0.0010 0.0010 0.0010 0.0010 0.0010 
669.327856 0.0010 0.0010 0.0010 0.0010 0.0010 0.0010 0.0010 0.0010 0.0010 0.0010 
678.972349 0.0010 0.0010 0.0010 0.0010 0.0010 0.0010 0.0010 0.0010 0.0010 0.0010 
688.616843 0.0010 0.0010 0.0010 0.0010 0.0010 0.0010 0.0010 0.0010 0.0010 0.0010 
698.261337 0.0010 0.0010 0.0010 0.0010 0.0010 0.0010 0.0010 0.0010 0.0010 0.0010 
707.905830 0.0010 0.0010 0.0010 0.0010 0.0010 0.0010 0.0010 0.0010 0.0010 0.0010 
717.550324 0.0010 0.0010 0.0010 0.0010 0.0010 0.0010 0.0010 0.0010 0.0010 0.0010 
727.194817 0.0010 0.0010 0.0010 0.0010 0.0010 0.0010 0.0010 0.0010 0.0010 0.0010 
736.839311 0.0010 0.0010 0.0010 0.0010 0.0010 0.0010 0.0010 0.0010 0.0010 0.0010 
746.483805 0.0010 0.0010 0.0010 0.0010 0.0010 0.0010 0.0010 0.0010 0.0010 0.0010 
756.128298 0.0010 0.0010 0.0010 0.0010 0.0010 0.0010 0.0010 0.0010 0.0010 0.0010 
765.772792 0.0010 0.0010 0.0010 0.0010 0.0010 0.0010 0.0010 0.0010 0.0010 0.0010 
775.417285 0.0010 0.0010 0.0010 0.0010 0.0010 0.0010 0.0010 0.0010 0.0010 0.0010 
785.061779 0.0010 0.0010 0.0010 0.0010 0.0010 0.0010 0.0010 0.0010 0.0010 0.0010 
794.706273 0.0010 0.0010 0.0010 0.0010 0.0010 0.0010 0.0010 0.0010 0.0010 0.0010 
804.350766 0.0010 0.0010 0.0010 0.0010 0.0010 0.0010 0.0010 0.0010 0.0010 0.0010 
813.995260 0.0010 0.0010 0.0010 0.0010 0.0010 0.0010 0.0010 0.0010 0.0010 0.0010 
823.639753 0.0010 0.0010 0.0010 0.0010 0.0010 0.0010 0.0010 0.0010 0.0010 0.0010 
833.284247 0.0010 0.0010 0.0010 0.0010 0.0010 0.0010 0.0010 0.0010 0.0010 0.0010 
842.928741 0.0010 0.0010 0.0010 0.0010 0.0010 0.0010 0.0010 0.0010 0.0010 0.0010 
852.573234 0.0010 0.0010 0.0010 0.0010 0.0010 0.0010 0.0010 0.0010 0.0403 0.0408 
862.217728 0.0413 0.0417 0.0423 0.0425 0.0428 0.0429 0.0426 0.0418 0.0406 0.0387 
871.862221 0.0364 0.0343 0.0326 0.0312 0.0302 0.0294 0.0291 0.0287 0.0286 0.0285 
881.506715 0.0289 0.0290 0.0291 0.0295 0.0301 0.0302 0.0305 0.0310 0.0315 0.0319 
891.151209 0.0325 0.0331 0.0340 0.0348 0.0360 0.0374 0.0392 0.0409 0.0425 0.0439 
900.795702 0.0449 0.0456 0.0465 0.0473 0.0479 0.0481 0.0480 0.0476 0.0475 0.0474 
910.440196 0.0477 0.0482 0.0487 0.0488 0.0489 0.0486 0.0479 0.0472 0.0468 0.0464 
920.084689 0.0464 0.0462 0.0464 0.0469 0.0481 0.0494 0.0506 0.0521 0.0540 0.0557 
929.729183 0.0573 0.0586 0.0598 0.0610 0.0624 0.0638 0.0657 0.0675 0.0695 0.0711 
939.373677 0.0719 0.0716 0.0702 0.0681 0.0657 0.0630 0.0605 0.0582 0.0561 0.0544 
949.018170 0.0530 0.0518 0.0508 0.0497 0.0490 0.0485 0.0484 0.0483 0.0484 0.0485 
958.662664 0.0487 0.0490 0.0496 0.0503 0.0510 0.0516 0.0518 0.0510 0.0492 0.0471 
968.307157 0.0453 0.0438 0.0430 0.0425 0.0427 0.0434 0.0446 0.0460 0.0473 0.0482 
977.951651 0.0485 0.0483 0.0477 0.0470 0.0467 0.0466 0.0472 0.0480 0.0486 0.0487 
987.596145 0.0481 0.0467 0.0448 0.0424 0.0400 0.0377 0.0359 0.0343 0.0332 0.0321 
997.240638 0.0313 0.0308 0.0308 0.0312 0.0319 0.0329 0.0346 0.0366 0.0393 0.0427 
1006.885132 0.0468 0.0513 0.0562 0.0615 0.0677 0.0743 0.0813 0.0880 0.0936 
1015.565176 0.0972 0.0987 0.0983 0.0964 0.0939 0.0917 0.0893 0.0864 0.0819 
1024.245220 0.0758 0.0689 0.0626 0.0572 0.0529 0.0497 0.0471 0.0446 0.0423 
1032.925265 0.0399 0.0377 0.0357 0.0338 0.0323 0.0312 0.0302 0.0295 0.0291 
1041.605309 0.0289 0.0288 0.0289 0.0291 0.0296 0.0304 0.0314 0.0327 0.0345 
1050.285353 0.0367 0.0394 0.0421 0.0445 0.0462 0.0468 0.0467 0.0465 0.0462 
1058.965397 0.0461 0.0462 0.0470 0.0481 0.0499 0.0519 0.0535 0.0535 0.0523 
1067.645442 0.0501 0.0480 0.0462 0.0448 0.0440 0.0438 0.0441 0.0448 0.0458 
1076.325486 0.0472 0.0488 0.0507 0.0528 0.0551 0.0575 0.0604 0.0637 0.0676 
1085.005530 0.0721 0.0776 0.0840 0.0914 0.1000 0.1097 0.1202 0.1313 0.1422 
1093.685574 0.1524 0.1611 0.1680 0.1730 0.1764 0.1780 0.1784 0.1777 0.1764 
1102.365618 0.1749 0.1740 0.1737 0.1744 0.1755 0.1773 0.1788 0.1797 0.1798 
1111.045663 0.1789 0.1755 0.1680 0.1558 0.1406 0.1247 0.1102 0.0978 0.0881 
1119.725707 0.0804 0.0745 0.0699 0.0664 0.0638 0.0618 0.0601 0.0589 0.0581 
1128.405751 0.0576 0.0573 0.0573 0.0574 0.0578 0.0583 0.0590 0.0598 0.0610 
1137.085795 0.0622 0.0637 0.0653 0.0671 0.0690 0.0712 0.0735 0.0764 0.0795 
1145.765840 0.0829 0.0866 0.0909 0.0956 0.1009 0.1066 0.1133 0.1206 0.1288 
1154.445884 0.1378 0.1480 0.1591 0.1716 0.1854 0.2007 0.2178 0.2372 0.2586 
1163.125928 0.2825 0.3085 0.3370 0.3673 0.3995 0.4325 0.4659 0.4973 0.5257 
1171.805972 0.5483 0.5631 0.5674 0.5610 0.5436 0.5182 0.4873 0.4552 0.4236 
1180.486017 0.3953 0.3707 0.3507 0.3351 0.3244 0.3181 0.3170 0.3209 0.3298 
1189.166061 0.3427 0.3590 0.3767 0.3938 0.4071 0.4147 0.4141 0.4062 0.3914 
1197.846105 0.3725 0.3511 0.3298 0.3097 0.2918 0.2759 0.2626 0.2512 0.2422 
1206.526149 0.2348 0.2294 0.2258 0.2243 0.2249 0.2287 0.2365 0.2497 0.2682 
1215.206194 0.2884 0.2998 0.2945 0.2773 0.2592 0.2455 0.2363 0.2299 0.2257 
1223.886238 0.2228 0.2210 0.2198 0.2193 0.2193 0.2199 0.2206 0.2217 0.2231 
1232.566282 0.2248 0.2267 0.2292 0.2315 0.2342 0.2368 0.2394 0.2420 0.2449 
1241.246326 0.2478 0.2513 0.2549 0.2588 0.2626 0.2665 0.2704 0.2747 0.2792 
1249.926371 0.2846 0.2906 0.2974 0.3045 0.3114 0.3170 0.3214 0.3237 0.3243 
1258.606415 0.3229 0.3202 0.3158 0.3100 0.3023 0.2930 0.2826 0.2720 0.2613 
1267.286459 0.2513 0.2415 0.2321 0.2227 0.2138 0.2050 0.1972 0.1900 0.1837 
1275.966503 0.1782 0.1736 0.1693 0.1659 0.1626 0.1597 0.1571 0.1552 0.1538 
1284.646548 0.1530 0.1526 0.1525 0.1522 0.1516 0.1499 0.1474 0.1439 0.1403 
1293.326592 0.1363 0.1326 0.1291 0.1266 0.1245 0.1233 0.1224 0.1212 0.1195 
1302.006636 0.1184 0.1178 0.1185 0.1194 0.1203 0.1209 0.1219 0.1230 0.1244 
1310.686680 0.1253 0.1258 0.1257 0.1259 0.1265 0.1282 0.1302 0.1329 0.1347 
1319.366724 0.1353 0.1339 0.1310 0.1268 0.1226 0.1188 0.1160 0.1137 0.1125 
1328.046769 0.1122 0.1132 0.1150 0.1178 0.1210 0.1249 0.1289 0.1328 0.1353 
1336.726813 0.1359 0.1341 0.1312 0.1283 0.1264 0.1255 0.1256 0.1259 0.1266 
1345.406857 0.1270 0.1275 0.1274 0.1268 0.1253 0.1237 0.1222 0.1213 0.1209 
1354.086901 0.1221 0.1243 0.1278 0.1314 0.1357 0.1398 0.1438 0.1469 0.1495 
1362.766946 0.1499 0.1492 0.1471 0.1437 0.1388 0.1334 0.1273 0.1217 0.1168 
1371.446990 0.1121 0.1081 0.1043 0.1009 0.0996 0.1009 0.1047 0.1121 0.1215 
1380.127034 0.1297 0.1324 0.1271 0.1163 0.1045 0.0947 0.0874 0.0814 0.0757 
1388.807078 0.0729 0.0708 0.0687 0.0669 0.0656 0.0644 0.0628 0.0623 0.0627 
1397.487123 0.0631 0.0632 0.0634 0.0650 0.0665 0.0684 0.0706 0.0730 0.0767 
1406.167167 0.0816 0.0862 0.0920 0.0979 0.1041 0.1097 0.1148 0.1188 0.1224 
1414.847211 0.1255 0.1284 0.1308 0.1336 0.1347 0.1361 0.1370 0.1364 0.1339 
1423.527255 0.1307 0.1277 0.1273 0.1278 0.1304 0.1348 0.1418 0.1558 0.1744 
1432.207300 0.1975 0.2320 0.2733 0.3092 0.3330 0.3279 0.3045 0.2773 0.2486 
1440.887344 0.2266 0.2114 0.2003 0.1919 0.1848 0.1792 0.1750 0.1716 0.1700 
1449.567388 0.1712 0.1743 0.1796 0.1876 0.1951 0.2008 0.2037 0.2049 0.2015 
1458.247432 0.1992 0.1958 0.1947 0.1926 0.1902 0.1881 0.1897 0.1981 0.2071 
1466.927477 0.2042 0.1963 0.1821 0.1598 0.1359 0.1135 0.0906 0.0794 0.0728 
1475.607521 0.0687 0.0621 0.0589 0.0561 0.0534 0.0507 0.0483 0.0462 0.0449 
1484.287565 0.0432 0.0419 0.0404 0.0384 0.0372 0.0364 0.0341 0.0338 0.0342 
1492.967609 0.0340 0.0333 0.0325 0.0307 0.0298 0.0298 0.0287 0.0285 0.0010 
1501.647654 0.0010 0.0010 0.0010 0.0010 0.0010 0.0010 0.0010 0.0010 0.0010 
1510.327698 0.0010 0.0010 0.0010 0.0010 0.0010 0.0010 0.0010 0.0010 0.0010 
1519.007742 0.0010 0.0010 0.0010 0.0010 0.0010 0.0010 0.0010 0.0010 0.0010 
1527.687786 0.0010 0.0010 0.0010 0.0010 0.0010 0.0010 0.0010 0.0010 0.0010 
1536.367830 0.0010 0.0010 0.0010 0.0010 0.0010 0.0010 0.0010 0.0010 0.0010 
1545.047875 0.0010 0.0010 0.0010 0.0010 0.0010 0.0010 0.0010 0.0010 0.0010 
1553.727919 0.0010 0.0010 0.0010 0.0010 0.0010 0.0010 0.0010 0.0010 0.0010 
1562.407963 0.0010 0.0010 0.0010 0.0010 0.0010 0.0010 0.0010 0.0010 0.0010 
1571.088007 0.0010 0.0010 0.0010 0.0010 0.0010 0.0010 0.0010 0.0010 0.0010 
1579.768052 0.0010 0.0010 0.0010 0.0010 0.0010 0.0010 0.0010 0.0010 0.0010 
1588.448096 0.0010 0.0010 0.0010 0.0010 0.0010 0.0010 0.0010 0.0010 0.0010 
1597.128140 0.0010 0.0010 0.0010 0.0010 0.0010 0.0010 0.0010 0.0010 0.0010 
1605.808184 0.0010 0.0010 0.0010 0.0010 0.0010 0.0010 0.0010 0.0010 0.0010 
1614.488229 0.0010 0.0010 0.0010 0.0010 0.0010 0.0010 0.0010 0.0010 0.0010 
1623.168273 0.0010 0.0010 0.0010 0.0010 0.0010 0.0010 0.0010 0.0010 0.0010 
1631.848317 0.0010 0.0010 0.0010 0.0010 0.0010 0.0010 0.0010 0.0010 0.0010 
1640.528361 0.0010 0.0010 0.0010 0.0010 0.0010 0.0010 0.0010 0.0010 0.0010 
1649.208406 0.0010 0.0376 0.0375 0.0354 0.0313 0.0340 0.0386 0.0401 0.0413 
1657.888450 0.0418 0.0425 0.0429 0.0436 0.0435 0.0436 0.0449 0.0464 0.0470 
1666.568494 0.0479 0.0480 0.0479 0.0480 0.0501 0.0507 0.0529 0.0541 0.0548 
1675.248538 0.0544 0.0580 0.0597 0.0617 0.0627 0.0645 0.0669 0.0689 0.0685 
1683.928583 0.0684 0.0740 0.0813 0.0845 0.0888 0.0934 0.0987 0.1045 0.1115 
1692.608627 0.1175 0.1254 0.1306 0.1382 0.1551 0.1674 0.1774 0.1863 0.2063 
1701.288671 0.2466 0.2612 0.2831 0.3133 0.3547 0.3904 0.4439 0.4828 0.5178 
1709.968715 0.5488 0.5741 0.5799 0.5751 0.5561 0.5247 0.4829 0.4598 0.4247 
1718.648760 0.3900 0.3745 0.3676 0.3628 0.3643 0.3702 0.3838 0.3994 0.4223 
1727.328804 0.4498 0.4830 0.5159 0.5703 0.6236 0.6682 0.7159 0.8054 0.9043 
1736.008848 0.9544 1.0043 1.0678 1.1128 1.1643 1.1890 1.1958 1.1930 1.1751 
1744.688892 1.1384 1.0959 1.0389 0.9710 0.8868 0.7908 0.7280 0.6216 0.5349 
1753.368936 0.4778 0.4202 0.3716 0.3319 0.2860 0.2569 0.2323 0.2120 0.1946 
1762.048981 0.1738 0.1581 0.1487 0.1375 0.1284 0.1202 0.1129 0.1035 0.0994 
1770.729025 0.0937 0.0880 0.0811 0.0789 0.0767 0.0741 0.0708 0.0692 0.0666 
1779.409069 0.0648 0.0618 0.0600 0.0583 0.0572 0.0552 0.0536 0.0521 0.0512 
1788.089113 0.0495 0.0485 0.0469 0.0455 0.0433 0.0418 0.0416 0.0417 0.0405 
1796.769158 0.0400 0.0391 0.0383 0.0366 0.0364 0.0358 0.0352 0.0345 0.0343 
1805.449202 0.0335 0.0332 0.0323 0.0319 0.0312 0.0304 0.0295 0.0296 0.0291 
1814.129246 0.0289 0.0283 0.0280 0.0273 0.0271 0.0266 0.0264 0.0258 0.0256 
1822.809290 0.0252 0.0251 0.0241 0.0236 0.0237 0.0237 0.0228 0.0216 0.0214 
1831.489335 0.0224 0.0225 0.0225 0.0222 0.0221 0.0217 0.0215 0.0213 0.0215 
1840.169379 0.0212 0.0212 0.0209 0.0206 0.0191 0.0194 0.0201 0.0203 0.0199 
1848.849423 0.0200 0.0200 0.0200 0.0198 0.0198 0.0196 0.0196 0.0194 0.0194 
1857.529467 0.0193 0.0194 0.0193 0.0193 0.0191 0.0191 0.0189 0.0189 0.0187 
1866.209512 0.0184 0.0179 0.0177 0.0172 0.0177 0.0181 0.0183 0.0182 0.0182 
1874.889556 0.0181 0.0181 0.0179 0.0179 0.0178 0.0179 0.0177 0.0177 0.0176 
1883.569600 0.0177 0.0175 0.0175 0.0174 0.0175 0.0173 0.0168 0.0167 0.0172 
1892.249644 0.0172 0.0173 0.0171 0.0170 0.0170 0.0172 0.0170 0.0170 0.0169 
1900.929689 0.0169 0.0168 0.0168 0.0167 0.0168 0.0167 0.0167 0.0164 0.0165 
1909.609733 0.0163 0.0164 0.0164 0.0165 0.0165 0.0165 0.0164 0.0165 0.0161 
1918.289777 0.0157 0.0161 0.0165 0.0164 0.0163 0.0160 0.0163 0.0164 0.0165 
1926.969821 0.0165 0.0165 0.0165 0.0165 0.0165 0.0166 0.0165 0.0166 0.0165 
1935.649866 0.0166 0.0167 0.0168 0.0168 0.0169 0.0169 0.0169 0.0164 0.0168 
1944.329910 0.0172 0.0172 0.0171 0.0174 0.0175 0.0176 0.0176 0.0177 0.0176 
1953.009954 0.0176 0.0177 0.0176 0.0175 0.0175 0.0175 0.0172 0.0170 0.0173 
1961.689998 0.0172 0.0173 0.0172 0.0172 0.0171 0.0170 0.0169 0.0171 0.0171 
1970.370042 0.0172 0.0172 0.0173 0.0173 0.0174 0.0174 0.0174 0.0173 0.0174 
1979.050087 0.0174 0.0174 0.0175 0.0176 0.0176 0.0176 0.0176 0.0176 0.0176 
1987.730131 0.0177 0.0178 0.0179 0.0178 0.0176 0.0177 0.0181 0.0182 0.0184 
1996.410175 0.0184 0.0185 0.0185 0.0187 0.0187 0.0188 0.0188 0.0190 0.0190 
2005.090219 0.0192 0.0193 0.0195 0.0195 0.0196 0.0197 0.0198 0.0198 0.0200 
2013.770264 0.0200 0.0201 0.0201 0.0201 0.0202 0.0203 0.0202 0.0203 0.0203 
2022.450308 0.0205 0.0205 0.0206 0.0206 0.0206 0.0206 0.0206 0.0206 0.0207 
2031.130352 0.0207 0.0207 0.0206 0.0206 0.0204 0.0203 0.0202 0.0202 0.0201 
2039.810396 0.0200 0.0198 0.0197 0.0196 0.0195 0.0193 0.0192 0.0191 0.0190 
2048.490441 0.0188 0.0188 0.0186 0.0187 0.0186 0.0187 0.0186 0.0185 0.0184 
2057.170485 0.0184 0.0183 0.0183 0.0183 0.0183 0.0183 0.0184 0.0182 0.0182 
2065.850529 0.0181 0.0181 0.0181 0.0181 0.0181 0.0180 0.0179 0.0180 0.0179 
2074.530573 0.0179 0.0178 0.0179 0.0178 0.0178 0.0177 0.0177 0.0177 0.0178 
2083.210618 0.0178 0.0178 0.0177 0.0178 0.0178 0.0178 0.0177 0.0177 0.0177 
2091.890662 0.0176 0.0175 0.0176 0.0174 0.0174 0.0173 0.0173 0.0172 0.0172 
2100.570706 0.0171 0.0170 0.0169 0.0169 0.0169 0.0169 0.0168 0.0169 0.0168 
2109.250750 0.0168 0.0167 0.0168 0.0168 0.0168 0.0168 0.0168 0.0167 0.0167 
2117.930795 0.0166 0.0167 0.0166 0.0166 0.0166 0.0167 0.0166 0.0166 0.0165 
2126.610839 0.0166 0.0165 0.0165 0.0164 0.0165 0.0165 0.0165 0.0165 0.0165 
2135.290883 0.0165 0.0166 0.0165 0.0165 0.0163 0.0163 0.0163 0.0163 0.0162 
2143.970927 0.0163 0.0162 0.0162 0.0162 0.0162 0.0161 0.0161 0.0161 0.0161 
2152.650972 0.0161 0.0161 0.0160 0.0160 0.0159 0.0159 0.0159 0.0159 0.0159 
2161.331016 0.0159 0.0158 0.0158 0.0158 0.0158 0.0157 0.0158 0.0158 0.0159 
2170.011060 0.0158 0.0158 0.0158 0.0158 0.0157 0.0157 0.0156 0.0156 0.0156 
2178.691104 0.0156 0.0155 0.0155 0.0155 0.0156 0.0155 0.0155 0.0155 0.0155 
2187.371148 0.0154 0.0154 0.0155 0.0155 0.0154 0.0154 0.0154 0.0155 0.0154 
2196.051193 0.0154 0.0154 0.0154 0.0153 0.0154 0.0153 0.0153 0.0152 0.0152 
2204.731237 0.0152 0.0153 0.0152 0.0152 0.0152 0.0152 0.0152 0.0153 0.0153 
2213.411281 0.0153 0.0152 0.0152 0.0152 0.0153 0.0152 0.0153 0.0152 0.0152 
2222.091325 0.0151 0.0151 0.0150 0.0150 0.0149 0.0149 0.0149 0.0149 0.0148 
2230.771370 0.0148 0.0147 0.0147 0.0147 0.0147 0.0147 0.0147 0.0146 0.0146 
2239.451414 0.0145 0.0146 0.0145 0.0145 0.0144 0.0145 0.0144 0.0144 0.0144 
2248.131458 0.0143 0.0143 0.0143 0.0142 0.0142 0.0141 0.0142 0.0141 0.0140 
2256.811502 0.0140 0.0140 0.0139 0.0138 0.0138 0.0137 0.0136 0.0136 0.0136 
2265.491547 0.0136 0.0135 0.0135 0.0135 0.0136 0.0135 0.0135 0.0135 0.0135 
2274.171591 0.0135 0.0135 0.0135 0.0136 0.0136 0.0136 0.0137 0.0138 0.0139 
2282.851635 0.0140 0.0140 0.0139 0.0137 0.0134 0.0131 0.0129 0.0126 0.0126 
2291.531679 0.0122 0.0122 0.0117 0.0117 0.0115 0.0111 0.0111 0.0105 0.0105 
2300.211724 0.0098 0.0097 0.0094 0.0088 0.0089 0.0078 0.0079 0.0061 0.0064 
2308.891768 0.0045 0.0047 0.0033 0.0030 0.0023 0.0019 0.0020 0.0013 0.0008 
2317.571812 0.0010 0.0010 0.0010 0.0010 0.0010 0.0010 0.0010 0.0010 0.0010 
2326.251856 0.0010 0.0010 0.0010 0.0010 0.0010 0.0010 0.0010 0.0010 0.0010 
2334.931901 0.0010 0.0010 0.0010 0.0010 0.0010 0.0010 0.0010 0.0010 0.0010 
2343.611945 0.0010 0.0010 0.0010 0.0010 0.0010 0.0010 0.0010 0.0010 0.0010 
2352.291989 0.0010 0.0010 0.0010 0.0010 0.0010 0.0010 0.0010 0.0010 0.0010 
2360.972033 0.0010 0.0010 0.0010 0.0010 0.0010 0.0010 0.0010 0.0010 0.0010 
2369.652078 0.0010 0.0010 0.0010 0.0010 0.0010 0.0010 0.0010 0.0011 0.0030 
2378.332122 0.0049 0.0068 0.0088 0.0107 0.0123 0.0136 0.0148 0.0157 0.0163 
2387.012166 0.0168 0.0170 0.0171 0.0173 0.0173 0.0174 0.0175 0.0176 0.0177 
2395.692210 0.0179 0.0181 0.0183 0.0186 0.0188 0.0189 0.0189 0.0190 0.0189 
2404.372254 0.0187 0.0185 0.0184 0.0184 0.0183 0.0183 0.0183 0.0183 0.0183 
2413.052299 0.0183 0.0183 0.0184 0.0184 0.0185 0.0186 0.0186 0.0187 0.0186 
2421.732343 0.0187 0.0187 0.0187 0.0187 0.0188 0.0190 0.0191 0.0191 0.0192 
2430.412387 0.0192 0.0194 0.0195 0.0196 0.0196 0.0198 0.0198 0.0198 0.0198 
2439.092431 0.0200 0.0201 0.0202 0.0202 0.0203 0.0203 0.0203 0.0203 0.0203 
2447.772476 0.0204 0.0204 0.0203 0.0204 0.0205 0.0205 0.0205 0.0205 0.0205 
2456.452520 0.0206 0.0205 0.0206 0.0207 0.0208 0.0207 0.0207 0.0207 0.0208 
2465.132564 0.0209 0.0210 0.0210 0.0211 0.0211 0.0211 0.0211 0.0212 0.0213 
2473.812608 0.0214 0.0215 0.0215 0.0215 0.0217 0.0217 0.0217 0.0217 0.0218 
2482.492653 0.0218 0.0219 0.0220 0.0221 0.0222 0.0223 0.0222 0.0223 0.0224 
2491.172697 0.0224 0.0225 0.0226 0.0226 0.0227 0.0228 0.0229 0.0229 0.0230 
2499.852741 0.0231 0.0233 0.0234 0.0235 0.0236 0.0236 0.0237 0.0239 0.0241 
2508.532785 0.0242 0.0243 0.0244 0.0245 0.0247 0.0248 0.0249 0.0250 0.0252 
2517.212830 0.0253 0.0254 0.0255 0.0258 0.0259 0.0261 0.0262 0.0264 0.0265 
2525.892874 0.0266 0.0268 0.0269 0.0271 0.0273 0.0275 0.0277 0.0278 0.0280 
2534.572918 0.0282 0.0284 0.0285 0.0288 0.0290 0.0292 0.0293 0.0296 0.0297 
2543.252962 0.0299 0.0301 0.0303 0.0304 0.0306 0.0306 0.0308 0.0310 0.0312 
2551.933007 0.0312 0.0312 0.0313 0.0314 0.0315 0.0317 0.0318 0.0319 0.0320 
2560.613051 0.0321 0.0322 0.0324 0.0326 0.0327 0.0328 0.0329 0.0330 0.0332 
2569.293095 0.0334 0.0335 0.0335 0.0337 0.0338 0.0339 0.0340 0.0341 0.0342 
2577.973139 0.0344 0.0345 0.0346 0.0346 0.0346 0.0346 0.0347 0.0348 0.0349 
2586.653184 0.0349 0.0349 0.0349 0.0350 0.0352 0.0354 0.0355 0.0356 0.0356 
2595.333228 0.0357 0.0359 0.0360 0.0360 0.0361 0.0363 0.0365 0.0366 0.0366 
2604.013272 0.0365 0.0366 0.0367 0.0367 0.0367 0.0369 0.0370 0.0371 0.0370 
2612.693316 0.0371 0.0371 0.0372 0.0373 0.0373 0.0374 0.0373 0.0372 0.0373 
2621.373360 0.0374 0.0374 0.0374 0.0375 0.0375 0.0375 0.0375 0.0376 0.0378 
2630.053405 0.0380 0.0382 0.0383 0.0384 0.0386 0.0387 0.0388 0.0389 0.0391 
2638.733449 0.0393 0.0394 0.0395 0.0397 0.0399 0.0400 0.0401 0.0403 0.0404 
2647.413493 0.0406 0.0408 0.0411 0.0413 0.0416 0.0418 0.0421 0.0423 0.0424 
2656.093537 0.0426 0.0427 0.0428 0.0429 0.0430 0.0431 0.0432 0.0433 0.0434 
2664.773582 0.0434 0.0436 0.0437 0.0436 0.0436 0.0436 0.0438 0.0439 0.0439 
2673.453626 0.0439 0.0438 0.0437 0.0435 0.0434 0.0433 0.0432 0.0430 0.0427 
2682.133670 0.0425 0.0422 0.0419 0.0417 0.0415 0.0413 0.0411 0.0409 0.0407 
2690.813714 0.0405 0.0404 0.0402 0.0401 0.0399 0.0398 0.0396 0.0395 0.0394 
2699.493759 0.0392 0.0390 0.0389 0.0387 0.0387 0.0387 0.0386 0.0385 0.0385 
2708.173803 0.0384 0.0385 0.0385 0.0385 0.0384 0.0385 0.0385 0.0386 0.0387 
2716.853847 0.0388 0.0388 0.0388 0.0388 0.0390 0.0391 0.0392 0.0392 0.0393 
2725.533891 0.0395 0.0396 0.0397 0.0400 0.0402 0.0405 0.0409 0.0413 0.0416 
2734.213936 0.0419 0.0422 0.0423 0.0424 0.0424 0.0423 0.0423 0.0422 0.0422 
2742.893980 0.0420 0.0419 0.0418 0.0417 0.0416 0.0414 0.0412 0.0412 0.0411 
2751.574024 0.0409 0.0408 0.0408 0.0408 0.0408 0.0408 0.0407 0.0406 0.0406 
2760.254068 0.0406 0.0407 0.0408 0.0408 0.0409 0.0410 0.0410 0.0412 0.0413 
2768.934113 0.0413 0.0413 0.0414 0.0415 0.0416 0.0417 0.0418 0.0418 0.0419 
2777.614157 0.0420 0.0422 0.0424 0.0425 0.0427 0.0430 0.0432 0.0433 0.0436 
2786.294201 0.0439 0.0442 0.0445 0.0447 0.0450 0.0452 0.0455 0.0457 0.0460 
2794.974245 0.0463 0.0466 0.0469 0.0472 0.0476 0.0479 0.0483 0.0487 0.0491 
2803.654290 0.0495 0.0499 0.0504 0.0507 0.0512 0.0516 0.0521 0.0526 0.0532 
2812.334334 0.0538 0.0544 0.0550 0.0558 0.0565 0.0573 0.0580 0.0588 0.0596 
2821.014378 0.0604 0.0611 0.0620 0.0628 0.0638 0.0647 0.0657 0.0668 0.0680 
2829.694422 0.0691 0.0702 0.0714 0.0725 0.0737 0.0750 0.0765 0.0785 0.0809 
2838.374466 0.0839 0.0874 0.0915 0.0959 0.1002 0.1036 0.1059 0.1070 0.1074 
2847.054511 0.1073 0.1075 0.1083 0.1099 0.1123 0.1158 0.1202 0.1257 0.1321 
2855.734555 0.1396 0.1479 0.1571 0.1669 0.1773 0.1874 0.1972 0.2062 0.2142 
2864.414599 0.2206 0.2257 0.2291 0.2316 0.2337 0.2365 0.2406 0.2474 0.2565 
2873.094643 0.2678 0.2785 0.2851 0.2839 0.2742 0.2580 0.2390 0.2202 0.2036 
2881.774688 0.1894 0.1781 0.1692 0.1624 0.1573 0.1535 0.1506 0.1489 0.1479 
2890.454732 0.1476 0.1477 0.1486 0.1500 0.1522 0.1551 0.1587 0.1627 0.1672 
2899.134776 0.1718 0.1765 0.1808 0.1848 0.1883 0.1913 0.1941 0.1969 0.1994 
2907.814820 0.2022 0.2049 0.2077 0.2105 0.2135 0.2165 0.2202 0.2240 0.2282 
2916.494865 0.2328 0.2384 0.2446 0.2518 0.2596 0.2684 0.2779 0.2884 0.2996 
2925.174909 0.3119 0.3249 0.3389 0.3531 0.3676 0.3818 0.3952 0.4061 0.4144 
2933.854953 0.4193 0.4212 0.4191 0.4140 0.4063 0.3974 0.3883 0.3805 0.3742 
2942.534997 0.3703 0.3684 0.3698 0.3740 0.3819 0.3934 0.4092 0.4277 0.4482 
2951.215042 0.4678 0.4855 0.4999 0.5125 0.5236 0.5360 0.5491 0.5631 0.5757 
2959.895086 0.5861 0.5914 0.5919 0.5869 0.5773 0.5620 0.5427 0.5193 0.4936 
2968.575130 0.4659 0.4377 0.4092 0.3820 0.3560 0.3320 0.3096 0.2897 0.2719 
2977.255174 0.2558 0.2413 0.2289 0.2178 0.2082 0.1997 0.1926 0.1862 0.1809 
2985.935219 0.1765 0.1729 0.1700 0.1676 0.1657 0.1642 0.1627 0.1618 0.1608 
2994.615263 0.1596 0.1579 0.1561 0.1539 0.1516 0.1490 0.1463 0.1434 0.1405 
3003.295307 0.1376 0.1350 0.1324 0.1301 0.1281 0.1264 0.1249 0.1237 0.1230 
3011.975351 0.1226 0.1225 0.1229 0.1236 0.1245 0.1257 0.1270 0.1282 0.1294 
3020.655396 0.1303 0.1310 0.1314 0.1314 0.1309 0.1302 0.1291 0.1275 0.1254 
3029.335440 0.1230 0.1205 0.1179 0.1152 0.1127 0.1101 0.1078 0.1057 0.1038 
3038.015484 0.1019 0.1000 0.0984 0.0970 0.0956 0.0945 0.0933 0.0923 0.0914 
3046.695528 0.0905 0.0897 0.0888 0.0881 0.0875 0.0869 0.0865 0.0859 0.0854 
3055.375572 0.0848 0.0843 0.0838 0.0835 0.0831 0.0829 0.0825 0.0821 0.0817 
3064.055617 0.0814 0.0811 0.0808 0.0806 0.0805 0.0802 0.0801 0.0800 0.0798 
3072.735661 0.0795 0.0794 0.0792 0.0790 0.0788 0.0786 0.0784 0.0782 0.0781 
3081.415705 0.0781 0.0780 0.0780 0.0780 0.0779 0.0777 0.0776 0.0777 0.0776 
3090.095749 0.0773 0.0773 0.0773 0.0773 0.0772 0.0771 0.0769 0.0767 0.0766 
3098.775794 0.0765 0.0762 0.0761 0.0759 0.0758 0.0756 0.0755 0.0753 0.0751 
3107.455838 0.0748 0.0746 0.0744 0.0742 0.0739 0.0737 0.0734 0.0732 0.0729 
3116.135882 0.0726 0.0724 0.0722 0.0718 0.0717 0.0715 0.0713 0.0710 0.0708 
3124.815926 0.0706 0.0704 0.0700 0.0698 0.0694 0.0692 0.0690 0.0688 0.0685 
3133.495971 0.0683 0.0681 0.0680 0.0677 0.0674 0.0672 0.0671 0.0668 0.0667 
3142.176015 0.0665 0.0664 0.0662 0.0660 0.0657 0.0656 0.0654 0.0652 0.0651 
3150.856059 0.0649 0.0648 0.0647 0.0646 0.0645 0.0645 0.0644 0.0643 0.0642 
3159.536103 0.0642 0.0641 0.0640 0.0639 0.0638 0.0639 0.0638 0.0638 0.0637 
3168.216148 0.0636 0.0635 0.0635 0.0634 0.0634 0.0633 0.0633 0.0632 0.0632 
3176.896192 0.0631 0.0630 0.0629 0.0629 0.0629 0.0628 0.0627 0.0626 0.0625 
3185.576236 0.0625 0.0625 0.0625 0.0623 0.0622 0.0622 0.0621 0.0620 0.0618 
3194.256280 0.0617 0.0617 0.0615 0.0614 0.0613 0.0613 0.0613 0.0612 0.0612 
3202.936325 0.0611 0.0610 0.0609 0.0608 0.0606 0.0605 0.0603 0.0602 0.0602 
3211.616369 0.0601 0.0599 0.0596 0.0595 0.0594 0.0593 0.0592 0.0590 0.0590 
3220.296413 0.0590 0.0589 0.0587 0.0586 0.0584 0.0583 0.0583 0.0581 0.0580 
3228.976457 0.0579 0.0578 0.0577 0.0574 0.0573 0.0573 0.0572 0.0571 0.0570 
3237.656502 0.0570 0.0569 0.0568 0.0566 0.0566 0.0564 0.0564 0.0562 0.0561 
3246.336546 0.0560 0.0559 0.0559 0.0557 0.0556 0.0556 0.0555 0.0553 0.0551 
3255.016590 0.0550 0.0550 0.0549 0.0548 0.0548 0.0548 0.0547 0.0546 0.0545 
3263.696634 0.0544 0.0543 0.0542 0.0542 0.0540 0.0539 0.0539 0.0538 0.0537 
3272.376678 0.0535 0.0534 0.0534 0.0533 0.0532 0.0531 0.0532 0.0531 0.0530 
3281.056723 0.0529 0.0530 0.0530 0.0529 0.0527 0.0526 0.0525 0.0523 0.0523 
3289.736767 0.0521 0.0520 0.0521 0.0522 0.0521 0.0520 0.0519 0.0517 0.0518 
3298.416811 0.0518 0.0517 0.0516 0.0515 0.0514 0.0513 0.0512 0.0512 0.0511 
3307.096855 0.0511 0.0509 0.0508 0.0507 0.0506 0.0506 0.0505 0.0506 0.0504 
3315.776900 0.0503 0.0502 0.0502 0.0501 0.0501 0.0501 0.0499 0.0498 0.0497 
3324.456944 0.0496 0.0495 0.0495 0.0495 0.0492 0.0491 0.0491 0.0490 0.0489 
3333.136988 0.0488 0.0488 0.0488 0.0487 0.0486 0.0486 0.0484 0.0483 0.0483 
3341.817032 0.0483 0.0482 0.0481 0.0479 0.0477 0.0477 0.0477 0.0477 0.0476 
3350.497077 0.0474 0.0474 0.0474 0.0472 0.0469 0.0468 0.0468 0.0468 0.0467 
3359.177121 0.0466 0.0465 0.0464 0.0462 0.0461 0.0460 0.0459 0.0457 0.0456 
3367.857165 0.0455 0.0454 0.0453 0.0452 0.0450 0.0449 0.0446 0.0446 0.0445 
3376.537209 0.0443 0.0443 0.0443 0.0443 0.0442 0.0440 0.0439 0.0437 0.0437 
3385.217254 0.0435 0.0433 0.0432 0.0432 0.0430 0.0430 0.0431 0.0429 0.0427 
3393.897298 0.0427 0.0426 0.0425 0.0424 0.0425 0.0425 0.0426 0.0424 0.0423 
3402.577342 0.0420 0.0416 0.0415 0.0415 0.0414 0.0413 0.0413 0.0412 0.0410 
3411.257386 0.0410 0.0411 0.0409 0.0407 0.0404 0.0403 0.0402 0.0401 0.0402 
3419.937431 0.0402 0.0400 0.0399 0.0399 0.0398 0.0397 0.0398 0.0398 0.0400 
3428.617475 0.0402 0.0404 0.0403 0.0402 0.0402 0.0404 0.0405 0.0406 0.0407 
3437.297519 0.0407 0.0405 0.0403 0.0403 0.0404 0.0404 0.0403 0.0406 0.0407 
3445.977563 0.0407 0.0408 0.0409 0.0411 0.0414 0.0415 0.0416 0.0418 0.0420 
3454.657608 0.0421 0.0422 0.0423 0.0425 0.0430 0.0432 0.0431 0.0429 0.0427 
3463.337652 0.0428 0.0429 0.0430 0.0432 0.0433 0.0432 0.0429 0.0422 0.0416 
3472.017696 0.0412 0.0409 0.0407 0.0405 0.0402 0.0400 0.0399 0.0400 0.0397 
3480.697740 0.0388 0.0381 0.0378 0.0377 0.0377 0.0379 0.0378 0.0373 0.0370 
3489.377784 0.0368 0.0366 0.0364 0.0364 0.0363 0.0362 0.0360 0.0361 0.0362 
3498.057829 0.0360 0.0358 0.0359 0.0361 0.0361 0.0357 0.0351 0.0350 0.0351 
3506.737873 0.0349 0.0349 0.0349 0.0349 0.0349 0.0351 0.0353 0.0355 0.0354 
3515.417917 0.0351 0.0352 0.0353 0.0354 0.0354 0.0355 0.0356 0.0356 0.0357 
3524.097961 0.0358 0.0358 0.0358 0.0357 0.0355 0.0355 0.0358 0.0360 0.0362 
3532.778006 0.0363 0.0363 0.0364 0.0363 0.0362 0.0360 0.0359 0.0358 0.0355 
3541.458050 0.0354 0.0353 0.0350 0.0347 0.0344 0.0340 0.0337 0.0336 0.0336 
3550.138094 0.0335 0.0331 0.0325 0.0324 0.0326 0.0326 0.0326 0.0324 0.0323 
3558.818138 0.0321 0.0320 0.0319 0.0317 0.0313 0.0310 0.0307 0.0302 0.0296 
3567.498183 0.0293 0.0294 0.0298 0.0299 0.0299 0.0297 0.0295 0.0294 0.0292 
3576.178227 0.0290 0.0290 0.0289 0.0288 0.0287 0.0286 0.0285 0.0282 0.0279 
3584.858271 0.0278 0.0272 0.0263 0.0257 0.0257 0.0260 0.0262 0.0261 0.0255 
3593.538315 0.0250 0.0249 0.0247 0.0248 0.0248 0.0246 0.0243 0.0240 0.0239 
3602.218360 0.0244 0.0246 0.0246 0.0245 0.0239 0.0232 0.0232 0.0231 0.0233 
3610.898404 0.0237 0.0235 0.0228 0.0228 0.0227 0.0228 0.0226 0.0220 0.0215 
3619.578448 0.0211 0.0210 0.0214 0.0216 0.0217 0.0218 0.0216 0.0212 0.0207 
3628.258492 0.0193 0.0173 0.0183 0.0198 0.0206 0.0207 0.0204 0.0205 0.0209 
3636.938537 0.0209 0.0207 0.0207 0.0208 0.0209 0.0208 0.0207 0.0208 0.0209 
3645.618581 0.0207 0.0196 0.0179 0.0176 0.0174 0.0163 0.0168 0.0185 0.0195 
3654.298625 0.0197 0.0196 0.0187 0.0185 0.0193 0.0197 0.0195 0.0196 0.0198 
3662.978669 0.0199 0.0200 0.0201 0.0201 0.0199 0.0195 0.0185 0.0175 0.0168 
3671.658714 0.0177 0.0190 0.0194 0.0179 0.0142 0.0158 0.0182 0.0195 0.0196 
3680.338758 0.0198 0.0205 0.0210 0.0210 0.0209 0.0210 0.0212 0.0209 0.0195 
3689.018802 0.0182 0.0187 0.0181 0.0179 0.0187 0.0191 0.0188 0.0184 0.0180 
3697.698846 0.0177 0.0173 0.0171 0.0169 0.0162 0.0152 0.0155 0.0159 0.0159 
3706.378890 0.0157 0.0158 0.0154 0.0139 0.0134 0.0134 0.0121 0.0134 0.0151 
3715.058935 0.0155 0.0156 0.0155 0.0149 0.0140 0.0139 0.0140 0.0130 0.0122 
3723.738979 0.0127 0.0128 0.0124 0.0117 0.0118 0.0123 0.0124 0.0123 0.0117 
3732.419023 0.0107 0.0110 0.0108 0.0089 0.0089 0.0105 0.0114 0.0122 0.0128 
3741.099067 0.0128 0.0128 0.0131 0.0119 0.0082 0.0105 0.0123 0.0128 0.0119 
3749.779112 0.0099 0.0105 0.0106 0.0101 0.0115 0.0127 0.0129 0.0124 0.0124 
3758.459156 0.0128 0.0122 0.0118 0.0126 0.0129 0.0129 0.0131 0.0128 0.0121 
3767.139200 0.0124 0.0127 0.0124 0.0113 0.0114 0.0122 0.0128 0.0129 0.0129 
3775.819244 0.0130 0.0130 0.0129 0.0125 0.0114 0.0115 0.0123 0.0125 0.0125 
3784.499289 0.0121 0.0118 0.0123 0.0127 0.0127 0.0126 0.0125 0.0125 0.0127 
3793.179333 0.0127 0.0126 0.0126 0.0120 0.0110 0.0116 0.0121 0.0121 0.0108 
3801.859377 0.0081 0.0092 0.0110 0.0121 0.0125 0.0113 0.0101 0.0115 0.0126 
3810.539421 0.0129 0.0129 0.0129 0.0130 0.0130 0.0120 0.0097 0.0105 0.0121 
3819.219466 0.0126 0.0117 0.0090 0.0094 0.0114 0.0122 0.0125 0.0124 0.0120 
3827.899510 0.0120 0.0126 0.0129 0.0128 0.0118 0.0120 0.0128 0.0123 0.0117 
3836.579554 0.0122 0.0114 0.0101 0.0108 0.0109 0.0111 0.0122 0.0124 0.0119 
3845.259598 0.0124 0.0131 0.0132 0.0130 0.0128 0.0129 0.0126 0.0112 0.0094 
3853.939643 0.0081 0.0091 0.0113 0.0119 0.0119 0.0125 0.0129 0.0127 0.0121 
3862.619687 0.0118 0.0118 0.0112 0.0106 0.0116 0.0126 0.0128 0.0118 0.0100 
3871.299731 0.0108 0.0121 0.0125 0.0114 0.0112 0.0119 0.0123 0.0126 0.0127 
3879.979775 0.0117 0.0106 0.0112 0.0118 0.0122 0.0120 0.0104 0.0104 0.0117 
3888.659820 0.0123 0.0123 0.0120 0.0106 0.0104 0.0113 0.0119 0.0122 0.0124 
3897.339864 0.0123 0.0119 0.0110 0.0109 0.0113 0.0109 0.0106 0.0102 0.0100 
3906.019908 0.0107 0.0112 0.0118 0.0120 0.0119 0.0119 0.0121 0.0121 0.0120 
3914.699952 0.0120 0.0121 0.0118 0.0114 0.0116 0.0118 0.0118 0.0119 0.0121 
3923.379996 0.0122 0.0119 0.0114 0.0114 0.0119 0.0121 0.0120 0.0119 0.0120 
3932.060041 0.0121 0.0119 0.0119 0.0121 0.0122 0.0123 0.0123 0.0122 0.0122 
3940.740085 0.0123 0.0123 0.0120 0.0117 0.0122 0.0124 0.0123 0.0122 0.0120 
3949.420129 0.0119 0.0120 0.0122 0.0123 0.0121 0.0122 0.0124 0.0125 0.0124 
3958.100173 0.0124 0.0126 0.0128 0.0128 0.0127 0.0127 0.0129 0.0129 0.0132 
3966.780218 0.0132 0.0132 0.0132 0.0132 0.0132 0.0132 0.0132 0.0131 0.0132 
3975.460262 0.0132 0.0132 0.0132 0.0132 0.0131 0.0131 0.0133 0.0132 0.0130 
3984.140306 0.0130 0.0130 0.0131 0.0130 0.0130 0.0129 0.0130 0.0130 0.0129 
3992.820350 0.0129 0.0129 0.0129 0.0129 0.0129 0.0130 0.0129 0.0129 0.0130 
##END=
