##JCAMP-DX=5.01
##FILENAME=KAM-13.jdx
##XUNITS=1/CM
##YUNITS=ABSORBANCE
##FIRSTX=399.282035
##LASTX=4000.535945
##MAXX=4000.535945
##MINX=399.282035
##FIRSTY=0.0051
##LASTY=0.0095
##MAXY=1.4016
##MINY=0.0010
##NPOINTS=3735
##XFACTOR=1
##YFACTOR=1
##XYDATA=(X++(Y..Y))
399.282035 0.0051 0.0076 0.0081 0.0088 0.0062 0.0059 0.0080 0.0111 0.0114 0.0126 
408.926529 0.0133 0.0118 0.0110 0.0105 0.0087 0.0062 0.0050 0.0070 0.0097 0.0087 
418.571022 0.0028 0.0037 0.0076 0.0098 0.0122 0.0125 0.0126 0.0129 0.0104 0.0089 
428.215516 0.0086 0.0096 0.0103 0.0094 0.0090 0.0073 0.0064 0.0079 0.0104 0.0114 
437.860009 0.0106 0.0117 0.0122 0.0118 0.0102 0.0099 0.0099 0.0099 0.0118 0.0130 
447.504503 0.0108 0.0109 0.0119 0.0117 0.0124 0.0133 0.0154 0.0155 0.0141 0.0143 
457.148997 0.0159 0.0162 0.0148 0.0149 0.0151 0.0142 0.0144 0.0144 0.0128 0.0118 
466.793490 0.0119 0.0121 0.0117 0.0112 0.0104 0.0102 0.0102 0.0098 0.0099 0.0098 
476.437984 0.0100 0.0101 0.0107 0.0102 0.0099 0.0099 0.0105 0.0115 0.0127 0.0135 
486.082477 0.0137 0.0137 0.0138 0.0138 0.0136 0.0140 0.0140 0.0138 0.0133 0.0137 
495.726971 0.0142 0.0141 0.0142 0.0144 0.0143 0.0145 0.0152 0.0161 0.0160 0.0160 
505.371465 0.0163 0.0167 0.0172 0.0184 0.0196 0.0203 0.0206 0.0204 0.0200 0.0202 
515.015958 0.0206 0.0205 0.0204 0.0209 0.0212 0.0211 0.0208 0.0209 0.0206 0.0200 
524.660452 0.0192 0.0181 0.0179 0.0183 0.0184 0.0185 0.0185 0.0185 0.0179 0.0176 
534.304945 0.0179 0.0177 0.0172 0.0176 0.0176 0.0171 0.0171 0.0174 0.0177 0.0179 
543.949439 0.0180 0.0180 0.0178 0.0177 0.0181 0.0184 0.0186 0.0193 0.0197 0.0202 
553.593933 0.0204 0.0201 0.0196 0.0194 0.0188 0.0181 0.0176 0.0173 0.0171 0.0166 
563.238426 0.0160 0.0157 0.0156 0.0157 0.0156 0.0152 0.0150 0.0152 0.0154 0.0154 
572.882920 0.0153 0.0153 0.0151 0.0152 0.0150 0.0147 0.0146 0.0143 0.0142 0.0140 
582.527413 0.0139 0.0138 0.0137 0.0135 0.0133 0.0131 0.0129 0.0128 0.0128 0.0129 
592.171907 0.0129 0.0127 0.0124 0.0126 0.0125 0.0122 0.0120 0.0121 0.0121 0.0120 
601.816401 0.0119 0.0116 0.0115 0.0116 0.0116 0.0114 0.0113 0.0112 0.0111 0.0110 
611.460894 0.0109 0.0108 0.0106 0.0105 0.0104 0.0101 0.0100 0.0098 0.0095 0.0094 
621.105388 0.0090 0.0087 0.0083 0.0081 0.0079 0.0075 0.0073 0.0072 0.0068 0.0065 
630.749881 0.0067 0.0070 0.0078 0.0087 0.0094 0.0098 0.0097 0.0095 0.0095 0.0098 
640.394375 0.0097 0.0097 0.0099 0.0097 0.0096 0.0097 0.0097 0.0095 0.0093 0.0093 
650.038869 0.0010 0.0010 0.0010 0.0010 0.0010 0.0010 0.0010 0.0010 0.0010 0.0010 
659.683362 0.0010 0.0010 0.0010 0.0010 0.0010 0.0010 0.0010 0.0010 0.0010 0.0010 
669.327856 0.0010 0.0010 0.0010 0.0010 0.0010 0.0010 0.0010 0.0010 0.0010 0.0010 
678.972349 0.0010 0.0010 0.0010 0.0010 0.0010 0.0010 0.0010 0.0010 0.0010 0.0010 
688.616843 0.0010 0.0010 0.0010 0.0010 0.0010 0.0010 0.0010 0.0010 0.0010 0.0010 
698.261337 0.0010 0.0010 0.0010 0.0010 0.0010 0.0010 0.0010 0.0010 0.0010 0.0010 
707.905830 0.0010 0.0010 0.0010 0.0010 0.0010 0.0010 0.0010 0.0010 0.0010 0.0010 
717.550324 0.0010 0.0010 0.0010 0.0010 0.0010 0.0010 0.0010 0.0010 0.0010 0.0010 
727.194817 0.0010 0.0010 0.0010 0.0010 0.0010 0.0010 0.0010 0.0010 0.0010 0.0010 
736.839311 0.0010 0.0010 0.0010 0.0010 0.0010 0.0010 0.0010 0.0010 0.0010 0.0010 
746.483805 0.0010 0.0010 0.0010 0.0010 0.0010 0.0010 0.0010 0.0010 0.0010 0.0010 
756.128298 0.0010 0.0010 0.0010 0.0010 0.0010 0.0010 0.0010 0.0010 0.0010 0.0010 
765.772792 0.0010 0.0010 0.0010 0.0010 0.0010 0.0010 0.0010 0.0010 0.0010 0.0010 
775.417285 0.0010 0.0010 0.0010 0.0010 0.0010 0.0010 0.0010 0.0010 0.0010 0.0010 
785.061779 0.0010 0.0010 0.0010 0.0010 0.0010 0.0010 0.0010 0.0010 0.0010 0.0010 
794.706273 0.0010 0.0010 0.0010 0.0010 0.0010 0.0010 0.0010 0.0010 0.0010 0.0010 
804.350766 0.0010 0.0010 0.0010 0.0010 0.0010 0.0010 0.0010 0.0010 0.0010 0.0010 
813.995260 0.0010 0.0010 0.0010 0.0010 0.0010 0.0010 0.0010 0.0010 0.0010 0.0010 
823.639753 0.0010 0.0010 0.0010 0.0010 0.0010 0.0010 0.0010 0.0010 0.0010 0.0010 
833.284247 0.0010 0.0010 0.0010 0.0010 0.0010 0.0010 0.0010 0.0010 0.0010 0.0010 
842.928741 0.0010 0.0010 0.0010 0.0010 0.0010 0.0010 0.0010 0.0010 0.0010 0.0010 
852.573234 0.0010 0.0010 0.0010 0.0010 0.0010 0.0010 0.0010 0.0010 0.0107 0.0111 
862.217728 0.0116 0.0121 0.0125 0.0128 0.0129 0.0129 0.0125 0.0121 0.0116 0.0111 
871.862221 0.0109 0.0110 0.0112 0.0117 0.0124 0.0133 0.0139 0.0144 0.0146 0.0146 
881.506715 0.0145 0.0143 0.0142 0.0142 0.0143 0.0145 0.0149 0.0156 0.0165 0.0178 
891.151209 0.0191 0.0205 0.0222 0.0240 0.0258 0.0280 0.0306 0.0332 0.0348 0.0350 
900.795702 0.0338 0.0317 0.0289 0.0258 0.0229 0.0205 0.0186 0.0171 0.0160 0.0152 
910.440196 0.0147 0.0144 0.0142 0.0142 0.0142 0.0143 0.0145 0.0148 0.0152 0.0157 
920.084689 0.0163 0.0172 0.0182 0.0195 0.0210 0.0227 0.0246 0.0267 0.0285 0.0301 
929.729183 0.0313 0.0319 0.0321 0.0319 0.0315 0.0309 0.0305 0.0301 0.0297 0.0296 
939.373677 0.0297 0.0303 0.0310 0.0321 0.0335 0.0352 0.0371 0.0391 0.0414 0.0440 
949.018170 0.0472 0.0505 0.0540 0.0576 0.0614 0.0654 0.0693 0.0727 0.0757 0.0786 
958.662664 0.0814 0.0843 0.0866 0.0873 0.0857 0.0821 0.0775 0.0727 0.0681 0.0640 
968.307157 0.0607 0.0582 0.0566 0.0559 0.0560 0.0564 0.0565 0.0569 0.0579 0.0600 
977.951651 0.0630 0.0664 0.0694 0.0711 0.0711 0.0693 0.0666 0.0638 0.0615 0.0601 
987.596145 0.0596 0.0600 0.0607 0.0616 0.0622 0.0623 0.0619 0.0612 0.0603 0.0592 
997.240638 0.0580 0.0569 0.0560 0.0553 0.0550 0.0551 0.0557 0.0569 0.0590 0.0618 
1006.885132 0.0651 0.0680 0.0700 0.0707 0.0704 0.0695 0.0683 0.0669 0.0651 
1015.565176 0.0635 0.0625 0.0623 0.0629 0.0638 0.0649 0.0658 0.0667 0.0678 
1024.245220 0.0691 0.0705 0.0720 0.0734 0.0746 0.0748 0.0743 0.0737 0.0741 
1032.925265 0.0764 0.0809 0.0878 0.0967 0.1069 0.1168 0.1252 0.1302 0.1308 
1041.605309 0.1276 0.1226 0.1173 0.1123 0.1080 0.1047 0.1027 0.1021 0.1025 
1050.285353 0.1036 0.1053 0.1067 0.1072 0.1066 0.1053 0.1042 0.1042 0.1055 
1058.965397 0.1076 0.1101 0.1124 0.1146 0.1170 0.1202 0.1242 0.1290 0.1342 
1067.645442 0.1396 0.1447 0.1487 0.1512 0.1521 0.1515 0.1499 0.1478 0.1456 
1076.325486 0.1437 0.1420 0.1410 0.1408 0.1413 0.1428 0.1452 0.1489 0.1542 
1085.005530 0.1613 0.1702 0.1811 0.1939 0.2092 0.2270 0.2474 0.2703 0.2958 
1093.685574 0.3233 0.3520 0.3812 0.4102 0.4379 0.4634 0.4860 0.5057 0.5227 
1102.365618 0.5381 0.5530 0.5672 0.5798 0.5895 0.5952 0.5964 0.5946 0.5915 
1111.045663 0.5905 0.5941 0.6052 0.6244 0.6509 0.6799 0.7063 0.7261 0.7388 
1119.725707 0.7447 0.7448 0.7397 0.7307 0.7174 0.7005 0.6803 0.6564 0.6286 
1128.405751 0.5976 0.5640 0.5289 0.4935 0.4594 0.4275 0.3981 0.3709 0.3451 
1137.085795 0.3200 0.2962 0.2742 0.2548 0.2383 0.2246 0.2135 0.2046 0.1975 
1145.765840 0.1917 0.1864 0.1816 0.1772 0.1732 0.1695 0.1663 0.1632 0.1600 
1154.445884 0.1563 0.1523 0.1482 0.1439 0.1396 0.1351 0.1302 0.1246 0.1184 
1163.125928 0.1116 0.1044 0.0973 0.0905 0.0840 0.0784 0.0736 0.0698 0.0666 
1171.805972 0.0640 0.0613 0.0587 0.0557 0.0524 0.0491 0.0461 0.0435 0.0414 
1180.486017 0.0396 0.0381 0.0368 0.0357 0.0347 0.0337 0.0328 0.0320 0.0312 
1189.166061 0.0305 0.0299 0.0293 0.0288 0.0282 0.0277 0.0272 0.0267 0.0263 
1197.846105 0.0259 0.0255 0.0251 0.0248 0.0244 0.0241 0.0237 0.0235 0.0232 
1206.526149 0.0231 0.0229 0.0228 0.0227 0.0226 0.0226 0.0227 0.0228 0.0230 
1215.206194 0.0234 0.0240 0.0248 0.0260 0.0274 0.0291 0.0311 0.0333 0.0358 
1223.886238 0.0386 0.0415 0.0447 0.0483 0.0525 0.0572 0.0625 0.0676 0.0720 
1232.566282 0.0749 0.0758 0.0748 0.0717 0.0670 0.0616 0.0564 0.0520 0.0484 
1241.246326 0.0459 0.0442 0.0431 0.0427 0.0425 0.0426 0.0428 0.0429 0.0429 
1249.926371 0.0432 0.0436 0.0443 0.0450 0.0456 0.0462 0.0466 0.0469 0.0468 
1258.606415 0.0466 0.0464 0.0464 0.0467 0.0474 0.0483 0.0495 0.0506 0.0514 
1267.286459 0.0518 0.0516 0.0505 0.0488 0.0465 0.0441 0.0415 0.0391 0.0371 
1275.966503 0.0354 0.0339 0.0327 0.0319 0.0315 0.0312 0.0312 0.0313 0.0316 
1284.646548 0.0321 0.0327 0.0335 0.0345 0.0355 0.0367 0.0382 0.0399 0.0418 
1293.326592 0.0440 0.0463 0.0489 0.0518 0.0550 0.0579 0.0602 0.0615 0.0623 
1302.006636 0.0629 0.0634 0.0634 0.0627 0.0612 0.0591 0.0562 0.0525 0.0484 
1310.686680 0.0446 0.0415 0.0393 0.0376 0.0367 0.0362 0.0363 0.0366 0.0370 
1319.366724 0.0370 0.0363 0.0352 0.0341 0.0333 0.0327 0.0322 0.0320 0.0321 
1328.046769 0.0324 0.0331 0.0344 0.0363 0.0390 0.0426 0.0470 0.0516 0.0553 
1336.726813 0.0572 0.0567 0.0550 0.0531 0.0512 0.0498 0.0489 0.0485 0.0485 
1345.406857 0.0494 0.0513 0.0542 0.0579 0.0623 0.0673 0.0725 0.0781 0.0843 
1354.086901 0.0923 0.1031 0.1146 0.1232 0.1270 0.1271 0.1274 0.1309 0.1366 
1362.766946 0.1419 0.1463 0.1477 0.1492 0.1516 0.1547 0.1595 0.1657 0.1718 
1371.446990 0.1781 0.1834 0.1886 0.1955 0.2046 0.2153 0.2268 0.2345 0.2303 
1380.127034 0.2127 0.1888 0.1638 0.1411 0.1221 0.1071 0.0958 0.0870 0.0780 
1388.807078 0.0725 0.0687 0.0654 0.0628 0.0609 0.0594 0.0577 0.0560 0.0545 
1397.487123 0.0534 0.0520 0.0506 0.0495 0.0487 0.0479 0.0475 0.0471 0.0472 
1406.167167 0.0474 0.0479 0.0488 0.0501 0.0512 0.0522 0.0521 0.0513 0.0499 
1414.847211 0.0484 0.0469 0.0456 0.0442 0.0433 0.0421 0.0421 0.0421 0.0424 
1423.527255 0.0429 0.0445 0.0459 0.0482 0.0516 0.0565 0.0625 0.0742 0.0868 
1432.207300 0.0992 0.1079 0.1071 0.0997 0.0922 0.0809 0.0763 0.0741 0.0727 
1440.887344 0.0724 0.0738 0.0766 0.0811 0.0870 0.0949 0.1034 0.1149 0.1322 
1449.567388 0.1452 0.1558 0.1644 0.1759 0.1908 0.2096 0.2317 0.2520 0.2687 
1458.247432 0.2705 0.2645 0.2632 0.2646 0.2719 0.2831 0.2985 0.3247 0.3416 
1466.927477 0.3260 0.2908 0.2495 0.2161 0.1911 0.1697 0.1450 0.1296 0.1182 
1475.607521 0.1114 0.1018 0.0969 0.0949 0.0944 0.0945 0.0948 0.0945 0.0942 
1484.287565 0.0931 0.0903 0.0844 0.0744 0.0632 0.0566 0.0474 0.0402 0.0363 
1492.967609 0.0335 0.0306 0.0287 0.0266 0.0244 0.0231 0.0219 0.0203 0.0010 
1501.647654 0.0010 0.0010 0.0010 0.0010 0.0010 0.0010 0.0010 0.0010 0.0010 
1510.327698 0.0010 0.0010 0.0010 0.0010 0.0010 0.0010 0.0010 0.0010 0.0010 
1519.007742 0.0010 0.0010 0.0010 0.0010 0.0010 0.0010 0.0010 0.0010 0.0010 
1527.687786 0.0010 0.0010 0.0010 0.0010 0.0010 0.0010 0.0010 0.0010 0.0010 
1536.367830 0.0010 0.0010 0.0010 0.0010 0.0010 0.0010 0.0010 0.0010 0.0010 
1545.047875 0.0010 0.0010 0.0010 0.0010 0.0010 0.0010 0.0010 0.0010 0.0010 
1553.727919 0.0010 0.0010 0.0010 0.0010 0.0010 0.0010 0.0010 0.0010 0.0010 
1562.407963 0.0010 0.0010 0.0010 0.0010 0.0010 0.0010 0.0010 0.0010 0.0010 
1571.088007 0.0010 0.0010 0.0010 0.0010 0.0010 0.0010 0.0010 0.0010 0.0010 
1579.768052 0.0010 0.0010 0.0010 0.0010 0.0010 0.0010 0.0010 0.0010 0.0010 
1588.448096 0.0010 0.0010 0.0010 0.0010 0.0010 0.0010 0.0010 0.0010 0.0010 
1597.128140 0.0010 0.0010 0.0010 0.0010 0.0010 0.0010 0.0010 0.0010 0.0010 
1605.808184 0.0010 0.0010 0.0010 0.0010 0.0010 0.0010 0.0010 0.0010 0.0010 
1614.488229 0.0010 0.0010 0.0010 0.0010 0.0010 0.0010 0.0010 0.0010 0.0010 
1623.168273 0.0010 0.0010 0.0010 0.0010 0.0010 0.0010 0.0010 0.0010 0.0010 
1631.848317 0.0010 0.0010 0.0010 0.0010 0.0010 0.0010 0.0010 0.0010 0.0010 
1640.528361 0.0010 0.0010 0.0010 0.0010 0.0010 0.0010 0.0010 0.0010 0.0010 
1649.208406 0.0010 0.0071 0.0069 0.0059 0.0021 0.0041 0.0062 0.0068 0.0071 
1657.888450 0.0070 0.0068 0.0068 0.0068 0.0067 0.0063 0.0064 0.0066 0.0067 
1666.568494 0.0067 0.0067 0.0063 0.0058 0.0061 0.0062 0.0065 0.0066 0.0065 
1675.248538 0.0060 0.0064 0.0066 0.0067 0.0067 0.0069 0.0068 0.0066 0.0060 
1683.928583 0.0043 0.0045 0.0064 0.0071 0.0074 0.0075 0.0076 0.0077 0.0079 
1692.608627 0.0080 0.0079 0.0076 0.0067 0.0067 0.0074 0.0075 0.0072 0.0053 
1701.288671 0.0075 0.0084 0.0088 0.0090 0.0093 0.0093 0.0099 0.0106 0.0110 
1709.968715 0.0113 0.0117 0.0118 0.0120 0.0121 0.0123 0.0125 0.0123 0.0112 
1718.648760 0.0116 0.0123 0.0125 0.0125 0.0126 0.0127 0.0130 0.0134 0.0140 
1727.328804 0.0147 0.0155 0.0162 0.0170 0.0173 0.0173 0.0168 0.0151 0.0145 
1736.008848 0.0147 0.0144 0.0137 0.0128 0.0116 0.0112 0.0109 0.0103 0.0096 
1744.688892 0.0091 0.0086 0.0081 0.0076 0.0071 0.0070 0.0069 0.0064 0.0063 
1753.368936 0.0062 0.0061 0.0060 0.0058 0.0056 0.0056 0.0056 0.0054 0.0051 
1762.048981 0.0049 0.0051 0.0051 0.0051 0.0050 0.0050 0.0049 0.0047 0.0046 
1770.729025 0.0043 0.0037 0.0035 0.0040 0.0043 0.0044 0.0044 0.0044 0.0044 
1779.409069 0.0044 0.0043 0.0043 0.0044 0.0043 0.0044 0.0044 0.0044 0.0044 
1788.089113 0.0044 0.0044 0.0044 0.0044 0.0041 0.0039 0.0042 0.0044 0.0047 
1796.769158 0.0047 0.0046 0.0045 0.0044 0.0047 0.0049 0.0048 0.0047 0.0047 
1805.449202 0.0046 0.0046 0.0046 0.0046 0.0044 0.0043 0.0043 0.0045 0.0044 
1814.129246 0.0043 0.0044 0.0044 0.0045 0.0045 0.0045 0.0044 0.0045 0.0045 
1822.809290 0.0046 0.0045 0.0044 0.0044 0.0045 0.0045 0.0044 0.0040 0.0041 
1831.489335 0.0044 0.0045 0.0046 0.0046 0.0046 0.0046 0.0046 0.0046 0.0047 
1840.169379 0.0047 0.0047 0.0048 0.0047 0.0044 0.0045 0.0048 0.0049 0.0050 
1848.849423 0.0049 0.0049 0.0049 0.0050 0.0050 0.0051 0.0050 0.0051 0.0051 
1857.529467 0.0050 0.0050 0.0050 0.0049 0.0048 0.0047 0.0047 0.0047 0.0046 
1866.209512 0.0046 0.0044 0.0043 0.0041 0.0042 0.0044 0.0043 0.0042 0.0042 
1874.889556 0.0043 0.0042 0.0041 0.0041 0.0041 0.0041 0.0041 0.0041 0.0041 
1883.569600 0.0042 0.0042 0.0042 0.0042 0.0042 0.0043 0.0043 0.0043 0.0043 
1892.249644 0.0044 0.0045 0.0045 0.0045 0.0046 0.0047 0.0048 0.0049 0.0049 
1900.929689 0.0050 0.0051 0.0052 0.0052 0.0053 0.0053 0.0053 0.0054 0.0055 
1909.609733 0.0055 0.0055 0.0055 0.0056 0.0057 0.0057 0.0058 0.0059 0.0058 
1918.289777 0.0058 0.0060 0.0061 0.0063 0.0065 0.0066 0.0066 0.0066 0.0067 
1926.969821 0.0068 0.0070 0.0070 0.0070 0.0071 0.0072 0.0073 0.0073 0.0073 
1935.649866 0.0073 0.0074 0.0075 0.0075 0.0075 0.0075 0.0076 0.0077 0.0076 
1944.329910 0.0076 0.0076 0.0075 0.0075 0.0075 0.0075 0.0075 0.0075 0.0075 
1953.009954 0.0074 0.0074 0.0073 0.0073 0.0073 0.0073 0.0071 0.0071 0.0071 
1961.689998 0.0070 0.0071 0.0070 0.0070 0.0069 0.0069 0.0068 0.0067 0.0067 
1970.370042 0.0066 0.0066 0.0065 0.0064 0.0063 0.0062 0.0061 0.0060 0.0060 
1979.050087 0.0059 0.0058 0.0057 0.0056 0.0055 0.0055 0.0054 0.0053 0.0053 
1987.730131 0.0053 0.0053 0.0052 0.0052 0.0053 0.0053 0.0052 0.0052 0.0052 
1996.410175 0.0052 0.0051 0.0052 0.0052 0.0051 0.0051 0.0051 0.0051 0.0051 
2005.090219 0.0051 0.0052 0.0052 0.0052 0.0052 0.0053 0.0053 0.0054 0.0055 
2013.770264 0.0055 0.0056 0.0057 0.0057 0.0058 0.0059 0.0060 0.0061 0.0061 
2022.450308 0.0062 0.0064 0.0066 0.0067 0.0068 0.0070 0.0071 0.0072 0.0073 
2031.130352 0.0075 0.0076 0.0077 0.0078 0.0079 0.0079 0.0080 0.0080 0.0079 
2039.810396 0.0079 0.0080 0.0080 0.0080 0.0080 0.0080 0.0081 0.0081 0.0081 
2048.490441 0.0082 0.0083 0.0084 0.0085 0.0085 0.0085 0.0086 0.0087 0.0087 
2057.170485 0.0088 0.0089 0.0089 0.0089 0.0090 0.0090 0.0091 0.0092 0.0092 
2065.850529 0.0093 0.0093 0.0093 0.0094 0.0095 0.0096 0.0097 0.0098 0.0099 
2074.530573 0.0100 0.0102 0.0102 0.0102 0.0103 0.0104 0.0104 0.0104 0.0103 
2083.210618 0.0103 0.0102 0.0102 0.0101 0.0101 0.0101 0.0100 0.0099 0.0098 
2091.890662 0.0097 0.0097 0.0097 0.0096 0.0096 0.0096 0.0095 0.0094 0.0093 
2100.570706 0.0092 0.0091 0.0090 0.0088 0.0087 0.0085 0.0084 0.0082 0.0081 
2109.250750 0.0079 0.0077 0.0077 0.0077 0.0076 0.0075 0.0074 0.0073 0.0072 
2117.930795 0.0072 0.0071 0.0070 0.0068 0.0067 0.0067 0.0066 0.0066 0.0065 
2126.610839 0.0064 0.0063 0.0063 0.0062 0.0061 0.0061 0.0060 0.0060 0.0060 
2135.290883 0.0060 0.0059 0.0059 0.0058 0.0058 0.0057 0.0057 0.0056 0.0056 
2143.970927 0.0055 0.0054 0.0054 0.0054 0.0054 0.0053 0.0053 0.0053 0.0054 
2152.650972 0.0054 0.0054 0.0055 0.0055 0.0056 0.0058 0.0059 0.0059 0.0060 
2161.331016 0.0061 0.0061 0.0061 0.0062 0.0063 0.0064 0.0064 0.0064 0.0064 
2170.011060 0.0065 0.0064 0.0065 0.0065 0.0066 0.0065 0.0065 0.0065 0.0065 
2178.691104 0.0064 0.0064 0.0064 0.0063 0.0063 0.0064 0.0064 0.0064 0.0064 
2187.371148 0.0064 0.0065 0.0066 0.0066 0.0065 0.0065 0.0065 0.0065 0.0065 
2196.051193 0.0066 0.0066 0.0065 0.0065 0.0065 0.0065 0.0064 0.0064 0.0064 
2204.731237 0.0064 0.0063 0.0063 0.0063 0.0063 0.0062 0.0062 0.0062 0.0062 
2213.411281 0.0062 0.0062 0.0062 0.0061 0.0061 0.0061 0.0060 0.0060 0.0060 
2222.091325 0.0060 0.0059 0.0059 0.0059 0.0058 0.0058 0.0059 0.0058 0.0058 
2230.771370 0.0057 0.0057 0.0056 0.0056 0.0056 0.0056 0.0056 0.0056 0.0055 
2239.451414 0.0056 0.0056 0.0056 0.0056 0.0056 0.0057 0.0057 0.0057 0.0057 
2248.131458 0.0057 0.0057 0.0057 0.0058 0.0058 0.0058 0.0058 0.0059 0.0059 
2256.811502 0.0059 0.0059 0.0060 0.0060 0.0060 0.0060 0.0059 0.0059 0.0059 
2265.491547 0.0059 0.0059 0.0059 0.0059 0.0059 0.0059 0.0058 0.0058 0.0058 
2274.171591 0.0059 0.0058 0.0058 0.0058 0.0058 0.0057 0.0057 0.0056 0.0056 
2282.851635 0.0055 0.0055 0.0055 0.0054 0.0054 0.0054 0.0054 0.0055 0.0055 
2291.531679 0.0055 0.0055 0.0056 0.0056 0.0056 0.0057 0.0057 0.0057 0.0057 
2300.211724 0.0058 0.0059 0.0059 0.0060 0.0061 0.0062 0.0062 0.0063 0.0064 
2308.891768 0.0065 0.0065 0.0066 0.0066 0.0067 0.0067 0.0066 0.0067 0.0067 
2317.571812 0.0068 0.0068 0.0069 0.0070 0.0070 0.0071 0.0070 0.0069 0.0069 
2326.251856 0.0069 0.0070 0.0070 0.0070 0.0071 0.0071 0.0070 0.0069 0.0066 
2334.931901 0.0066 0.0067 0.0066 0.0066 0.0066 0.0066 0.0066 0.0066 0.0066 
2343.611945 0.0067 0.0067 0.0067 0.0065 0.0062 0.0062 0.0063 0.0065 0.0065 
2352.291989 0.0064 0.0064 0.0064 0.0064 0.0063 0.0062 0.0063 0.0062 0.0061 
2360.972033 0.0063 0.0063 0.0063 0.0063 0.0063 0.0064 0.0066 0.0067 0.0067 
2369.652078 0.0068 0.0068 0.0069 0.0070 0.0070 0.0071 0.0071 0.0073 0.0073 
2378.332122 0.0074 0.0074 0.0073 0.0073 0.0073 0.0072 0.0072 0.0072 0.0072 
2387.012166 0.0072 0.0072 0.0073 0.0073 0.0074 0.0074 0.0075 0.0075 0.0075 
2395.692210 0.0076 0.0076 0.0076 0.0077 0.0078 0.0078 0.0077 0.0077 0.0076 
2404.372254 0.0076 0.0075 0.0075 0.0075 0.0075 0.0074 0.0074 0.0074 0.0074 
2413.052299 0.0075 0.0075 0.0075 0.0075 0.0074 0.0074 0.0073 0.0073 0.0072 
2421.732343 0.0072 0.0071 0.0071 0.0071 0.0071 0.0071 0.0071 0.0070 0.0070 
2430.412387 0.0070 0.0070 0.0069 0.0069 0.0069 0.0068 0.0068 0.0068 0.0067 
2439.092431 0.0067 0.0067 0.0066 0.0066 0.0065 0.0064 0.0063 0.0063 0.0063 
2447.772476 0.0063 0.0062 0.0062 0.0061 0.0061 0.0061 0.0060 0.0060 0.0060 
2456.452520 0.0060 0.0059 0.0059 0.0059 0.0059 0.0058 0.0057 0.0058 0.0058 
2465.132564 0.0058 0.0057 0.0057 0.0057 0.0057 0.0057 0.0056 0.0056 0.0056 
2473.812608 0.0056 0.0055 0.0055 0.0056 0.0056 0.0057 0.0057 0.0056 0.0056 
2482.492653 0.0057 0.0057 0.0057 0.0056 0.0056 0.0057 0.0057 0.0057 0.0057 
2491.172697 0.0057 0.0057 0.0058 0.0058 0.0057 0.0058 0.0058 0.0057 0.0058 
2499.852741 0.0059 0.0059 0.0059 0.0059 0.0060 0.0060 0.0060 0.0060 0.0060 
2508.532785 0.0061 0.0061 0.0062 0.0062 0.0062 0.0062 0.0062 0.0062 0.0063 
2517.212830 0.0063 0.0064 0.0064 0.0065 0.0065 0.0065 0.0065 0.0066 0.0066 
2525.892874 0.0065 0.0066 0.0066 0.0066 0.0066 0.0067 0.0068 0.0068 0.0069 
2534.572918 0.0069 0.0069 0.0070 0.0071 0.0071 0.0072 0.0072 0.0072 0.0073 
2543.252962 0.0074 0.0075 0.0075 0.0075 0.0076 0.0078 0.0079 0.0080 0.0080 
2551.933007 0.0081 0.0082 0.0084 0.0085 0.0086 0.0087 0.0088 0.0089 0.0090 
2560.613051 0.0091 0.0092 0.0093 0.0094 0.0096 0.0098 0.0099 0.0101 0.0103 
2569.293095 0.0106 0.0109 0.0112 0.0115 0.0117 0.0121 0.0125 0.0128 0.0132 
2577.973139 0.0136 0.0140 0.0144 0.0147 0.0149 0.0152 0.0154 0.0156 0.0158 
2586.653184 0.0159 0.0160 0.0161 0.0162 0.0162 0.0162 0.0161 0.0161 0.0160 
2595.333228 0.0160 0.0159 0.0158 0.0157 0.0157 0.0155 0.0154 0.0153 0.0152 
2604.013272 0.0152 0.0151 0.0151 0.0151 0.0151 0.0151 0.0152 0.0153 0.0154 
2612.693316 0.0155 0.0155 0.0155 0.0156 0.0157 0.0158 0.0159 0.0160 0.0160 
2621.373360 0.0161 0.0162 0.0162 0.0163 0.0163 0.0163 0.0163 0.0163 0.0163 
2630.053405 0.0163 0.0163 0.0163 0.0163 0.0162 0.0163 0.0163 0.0164 0.0164 
2638.733449 0.0165 0.0165 0.0165 0.0166 0.0167 0.0167 0.0168 0.0170 0.0171 
2647.413493 0.0174 0.0176 0.0178 0.0181 0.0183 0.0186 0.0189 0.0192 0.0194 
2656.093537 0.0197 0.0198 0.0200 0.0201 0.0202 0.0204 0.0205 0.0207 0.0208 
2664.773582 0.0209 0.0211 0.0212 0.0213 0.0215 0.0217 0.0219 0.0222 0.0226 
2673.453626 0.0230 0.0234 0.0240 0.0246 0.0252 0.0259 0.0265 0.0272 0.0278 
2682.133670 0.0285 0.0291 0.0296 0.0302 0.0308 0.0314 0.0321 0.0328 0.0335 
2690.813714 0.0342 0.0348 0.0354 0.0362 0.0369 0.0376 0.0383 0.0390 0.0397 
2699.493759 0.0404 0.0409 0.0413 0.0415 0.0416 0.0417 0.0418 0.0420 0.0422 
2708.173803 0.0426 0.0431 0.0437 0.0444 0.0450 0.0454 0.0459 0.0463 0.0466 
2716.853847 0.0469 0.0470 0.0473 0.0476 0.0481 0.0487 0.0494 0.0502 0.0511 
2725.533891 0.0522 0.0532 0.0544 0.0556 0.0567 0.0578 0.0588 0.0594 0.0597 
2734.213936 0.0597 0.0596 0.0593 0.0587 0.0581 0.0574 0.0568 0.0559 0.0550 
2742.893980 0.0541 0.0533 0.0525 0.0518 0.0512 0.0507 0.0502 0.0498 0.0496 
2751.574024 0.0494 0.0491 0.0489 0.0488 0.0487 0.0486 0.0486 0.0487 0.0489 
2760.254068 0.0492 0.0497 0.0502 0.0509 0.0516 0.0524 0.0534 0.0544 0.0555 
2768.934113 0.0567 0.0579 0.0593 0.0608 0.0623 0.0640 0.0659 0.0679 0.0701 
2777.614157 0.0725 0.0752 0.0783 0.0817 0.0855 0.0897 0.0945 0.0997 0.1052 
2786.294201 0.1110 0.1172 0.1236 0.1300 0.1366 0.1428 0.1488 0.1542 0.1588 
2794.974245 0.1620 0.1641 0.1644 0.1632 0.1604 0.1563 0.1511 0.1455 0.1395 
2803.654290 0.1337 0.1282 0.1233 0.1190 0.1156 0.1128 0.1107 0.1093 0.1085 
2812.334334 0.1082 0.1085 0.1091 0.1100 0.1114 0.1133 0.1157 0.1186 0.1218 
2821.014378 0.1256 0.1301 0.1351 0.1407 0.1470 0.1539 0.1613 0.1690 0.1774 
2829.694422 0.1863 0.1956 0.2055 0.2163 0.2282 0.2416 0.2566 0.2735 0.2919 
2838.374466 0.3128 0.3360 0.3615 0.3885 0.4170 0.4458 0.4745 0.5017 0.5284 
2847.054511 0.5542 0.5812 0.6089 0.6381 0.6673 0.6977 0.7271 0.7563 0.7833 
2855.734555 0.8097 0.8334 0.8571 0.8778 0.8994 0.9205 0.9425 0.9608 0.9773 
2864.414599 0.9874 0.9935 0.9910 0.9861 0.9765 0.9693 0.9645 0.9677 0.9739 
2873.094643 0.9809 0.9755 0.9507 0.9012 0.8378 0.7682 0.7024 0.6428 0.5921 
2881.774688 0.5485 0.5122 0.4816 0.4569 0.4364 0.4206 0.4084 0.3998 0.3936 
2890.454732 0.3901 0.3886 0.3897 0.3925 0.3970 0.4022 0.4088 0.4162 0.4249 
2899.134776 0.4339 0.4438 0.4536 0.4636 0.4730 0.4832 0.4940 0.5066 0.5200 
2907.814820 0.5349 0.5501 0.5662 0.5812 0.5952 0.6064 0.6160 0.6229 0.6289 
2916.494865 0.6341 0.6416 0.6509 0.6640 0.6805 0.7024 0.7290 0.7618 0.7978 
2925.174909 0.8385 0.8812 0.9270 0.9705 1.0137 1.0553 1.0975 1.1308 1.1582 
2933.854953 1.1724 1.1738 1.1552 1.1249 1.0820 1.0365 0.9892 0.9461 0.9046 
2942.534997 0.8685 0.8372 0.8145 0.7969 0.7867 0.7834 0.7893 0.8024 0.8252 
2951.215042 0.8559 0.8985 0.9527 1.0197 1.0921 1.1713 1.2460 1.3141 1.3630 
2959.895086 1.3965 1.4016 1.3882 1.3528 1.3069 1.2414 1.1656 1.0790 0.9922 
2968.575130 0.9034 0.8185 0.7377 0.6644 0.5972 0.5370 0.4830 0.4364 0.3949 
2977.255174 0.3585 0.3262 0.2982 0.2736 0.2523 0.2331 0.2162 0.2009 0.1871 
2985.935219 0.1746 0.1636 0.1534 0.1442 0.1359 0.1284 0.1215 0.1154 0.1100 
2994.615263 0.1049 0.1003 0.0960 0.0920 0.0884 0.0850 0.0819 0.0790 0.0764 
3003.295307 0.0738 0.0714 0.0691 0.0670 0.0650 0.0631 0.0613 0.0596 0.0580 
3011.975351 0.0565 0.0550 0.0536 0.0523 0.0510 0.0499 0.0487 0.0475 0.0464 
3020.655396 0.0454 0.0444 0.0434 0.0425 0.0416 0.0407 0.0399 0.0391 0.0382 
3029.335440 0.0375 0.0368 0.0360 0.0353 0.0346 0.0339 0.0333 0.0327 0.0322 
3038.015484 0.0316 0.0310 0.0304 0.0298 0.0292 0.0288 0.0283 0.0278 0.0273 
3046.695528 0.0268 0.0264 0.0259 0.0255 0.0251 0.0247 0.0243 0.0239 0.0236 
3055.375572 0.0233 0.0229 0.0225 0.0221 0.0219 0.0216 0.0213 0.0211 0.0208 
3064.055617 0.0204 0.0202 0.0200 0.0196 0.0193 0.0191 0.0190 0.0189 0.0186 
3072.735661 0.0183 0.0181 0.0180 0.0179 0.0176 0.0175 0.0172 0.0171 0.0169 
3081.415705 0.0169 0.0167 0.0165 0.0164 0.0163 0.0162 0.0161 0.0161 0.0160 
3090.095749 0.0158 0.0158 0.0157 0.0156 0.0155 0.0154 0.0153 0.0153 0.0153 
3098.775794 0.0152 0.0150 0.0149 0.0150 0.0150 0.0150 0.0148 0.0147 0.0147 
3107.455838 0.0146 0.0146 0.0146 0.0147 0.0147 0.0146 0.0144 0.0144 0.0145 
3116.135882 0.0144 0.0143 0.0142 0.0141 0.0142 0.0142 0.0142 0.0142 0.0142 
3124.815926 0.0142 0.0143 0.0143 0.0142 0.0141 0.0141 0.0142 0.0142 0.0141 
3133.495971 0.0141 0.0141 0.0141 0.0141 0.0141 0.0141 0.0140 0.0139 0.0139 
3142.176015 0.0140 0.0140 0.0140 0.0141 0.0140 0.0140 0.0140 0.0139 0.0139 
3150.856059 0.0139 0.0139 0.0139 0.0140 0.0140 0.0141 0.0142 0.0141 0.0141 
3159.536103 0.0141 0.0141 0.0141 0.0142 0.0142 0.0142 0.0142 0.0143 0.0143 
3168.216148 0.0143 0.0143 0.0144 0.0145 0.0146 0.0146 0.0147 0.0147 0.0147 
3176.896192 0.0149 0.0149 0.0149 0.0150 0.0151 0.0151 0.0152 0.0152 0.0153 
3185.576236 0.0153 0.0153 0.0153 0.0154 0.0155 0.0156 0.0155 0.0155 0.0156 
3194.256280 0.0158 0.0158 0.0157 0.0156 0.0156 0.0158 0.0159 0.0159 0.0158 
3202.936325 0.0157 0.0157 0.0157 0.0157 0.0157 0.0156 0.0155 0.0155 0.0155 
3211.616369 0.0155 0.0155 0.0154 0.0153 0.0153 0.0153 0.0153 0.0152 0.0152 
3220.296413 0.0151 0.0152 0.0152 0.0152 0.0151 0.0152 0.0152 0.0151 0.0152 
3228.976457 0.0151 0.0151 0.0152 0.0152 0.0152 0.0151 0.0152 0.0152 0.0151 
3237.656502 0.0151 0.0152 0.0152 0.0153 0.0153 0.0153 0.0154 0.0153 0.0154 
3246.336546 0.0155 0.0156 0.0156 0.0156 0.0156 0.0156 0.0157 0.0158 0.0158 
3255.016590 0.0158 0.0159 0.0159 0.0160 0.0161 0.0161 0.0163 0.0164 0.0164 
3263.696634 0.0164 0.0165 0.0166 0.0165 0.0167 0.0168 0.0168 0.0168 0.0168 
3272.376678 0.0169 0.0170 0.0171 0.0172 0.0171 0.0173 0.0174 0.0175 0.0176 
3281.056723 0.0177 0.0178 0.0179 0.0180 0.0181 0.0181 0.0181 0.0182 0.0183 
3289.736767 0.0184 0.0186 0.0187 0.0187 0.0189 0.0191 0.0191 0.0192 0.0193 
3298.416811 0.0195 0.0196 0.0198 0.0199 0.0200 0.0201 0.0202 0.0203 0.0204 
3307.096855 0.0206 0.0208 0.0209 0.0211 0.0212 0.0213 0.0215 0.0217 0.0219 
3315.776900 0.0220 0.0220 0.0222 0.0224 0.0226 0.0228 0.0230 0.0230 0.0231 
3324.456944 0.0233 0.0234 0.0236 0.0238 0.0239 0.0240 0.0241 0.0243 0.0246 
3333.136988 0.0247 0.0248 0.0250 0.0251 0.0252 0.0252 0.0254 0.0257 0.0259 
3341.817032 0.0260 0.0261 0.0263 0.0264 0.0265 0.0267 0.0268 0.0270 0.0272 
3350.497077 0.0273 0.0274 0.0275 0.0277 0.0277 0.0279 0.0282 0.0284 0.0284 
3359.177121 0.0285 0.0286 0.0288 0.0290 0.0292 0.0293 0.0294 0.0296 0.0297 
3367.857165 0.0299 0.0301 0.0303 0.0304 0.0305 0.0307 0.0309 0.0310 0.0311 
3376.537209 0.0313 0.0315 0.0317 0.0318 0.0319 0.0320 0.0322 0.0324 0.0325 
3385.217254 0.0327 0.0328 0.0329 0.0331 0.0332 0.0333 0.0335 0.0337 0.0339 
3393.897298 0.0341 0.0342 0.0343 0.0344 0.0347 0.0348 0.0350 0.0352 0.0354 
3402.577342 0.0355 0.0356 0.0357 0.0360 0.0362 0.0363 0.0364 0.0366 0.0368 
3411.257386 0.0370 0.0373 0.0375 0.0375 0.0377 0.0379 0.0380 0.0383 0.0385 
3419.937431 0.0387 0.0390 0.0391 0.0393 0.0395 0.0396 0.0398 0.0399 0.0400 
3428.617475 0.0403 0.0405 0.0407 0.0409 0.0411 0.0413 0.0415 0.0418 0.0420 
3437.297519 0.0423 0.0426 0.0429 0.0431 0.0433 0.0436 0.0438 0.0440 0.0443 
3445.977563 0.0447 0.0450 0.0452 0.0454 0.0458 0.0460 0.0461 0.0465 0.0469 
3454.657608 0.0472 0.0475 0.0478 0.0480 0.0482 0.0486 0.0489 0.0491 0.0493 
3463.337652 0.0496 0.0498 0.0500 0.0501 0.0504 0.0506 0.0508 0.0510 0.0514 
3472.017696 0.0516 0.0518 0.0519 0.0521 0.0521 0.0522 0.0523 0.0524 0.0526 
3480.697740 0.0527 0.0528 0.0528 0.0527 0.0527 0.0525 0.0525 0.0525 0.0525 
3489.377784 0.0523 0.0522 0.0520 0.0518 0.0516 0.0514 0.0511 0.0508 0.0506 
3498.057829 0.0504 0.0500 0.0496 0.0493 0.0491 0.0488 0.0483 0.0477 0.0471 
3506.737873 0.0467 0.0462 0.0457 0.0453 0.0447 0.0441 0.0434 0.0429 0.0424 
3515.417917 0.0419 0.0412 0.0406 0.0400 0.0394 0.0388 0.0382 0.0376 0.0371 
3524.097961 0.0366 0.0360 0.0352 0.0345 0.0339 0.0332 0.0326 0.0321 0.0316 
3532.778006 0.0309 0.0304 0.0298 0.0294 0.0290 0.0283 0.0278 0.0273 0.0269 
3541.458050 0.0263 0.0258 0.0254 0.0249 0.0247 0.0244 0.0239 0.0232 0.0227 
3550.138094 0.0224 0.0221 0.0217 0.0214 0.0209 0.0204 0.0201 0.0199 0.0196 
3558.818138 0.0192 0.0191 0.0188 0.0185 0.0181 0.0178 0.0176 0.0176 0.0172 
3567.498183 0.0168 0.0165 0.0163 0.0160 0.0157 0.0155 0.0153 0.0152 0.0151 
3576.178227 0.0149 0.0145 0.0143 0.0142 0.0140 0.0139 0.0139 0.0137 0.0135 
3584.858271 0.0133 0.0132 0.0132 0.0131 0.0128 0.0126 0.0126 0.0124 0.0121 
3593.538315 0.0120 0.0119 0.0119 0.0118 0.0116 0.0116 0.0116 0.0115 0.0115 
3602.218360 0.0116 0.0116 0.0116 0.0116 0.0116 0.0118 0.0117 0.0116 0.0117 
3610.898404 0.0118 0.0119 0.0121 0.0123 0.0126 0.0129 0.0131 0.0133 0.0137 
3619.578448 0.0142 0.0151 0.0158 0.0164 0.0169 0.0174 0.0180 0.0185 0.0188 
3628.258492 0.0189 0.0192 0.0196 0.0202 0.0205 0.0206 0.0210 0.0214 0.0217 
3636.938537 0.0218 0.0219 0.0220 0.0219 0.0217 0.0215 0.0210 0.0201 0.0192 
3645.618581 0.0183 0.0171 0.0157 0.0145 0.0131 0.0121 0.0119 0.0118 0.0117 
3654.298625 0.0112 0.0107 0.0099 0.0097 0.0098 0.0098 0.0097 0.0095 0.0096 
3662.978669 0.0095 0.0094 0.0093 0.0093 0.0093 0.0091 0.0089 0.0086 0.0087 
3671.658714 0.0092 0.0096 0.0097 0.0093 0.0083 0.0092 0.0101 0.0107 0.0111 
3680.338758 0.0115 0.0119 0.0122 0.0124 0.0126 0.0127 0.0125 0.0122 0.0117 
3689.018802 0.0112 0.0109 0.0105 0.0101 0.0100 0.0097 0.0094 0.0089 0.0085 
3697.698846 0.0082 0.0080 0.0079 0.0077 0.0074 0.0071 0.0071 0.0071 0.0070 
3706.378890 0.0070 0.0069 0.0065 0.0061 0.0060 0.0059 0.0054 0.0056 0.0061 
3715.058935 0.0062 0.0062 0.0062 0.0060 0.0056 0.0056 0.0056 0.0055 0.0057 
3723.738979 0.0058 0.0058 0.0058 0.0057 0.0057 0.0057 0.0056 0.0054 0.0050 
3732.419023 0.0045 0.0046 0.0048 0.0049 0.0051 0.0049 0.0049 0.0052 0.0052 
3741.099067 0.0051 0.0051 0.0049 0.0041 0.0029 0.0041 0.0048 0.0048 0.0043 
3749.779112 0.0040 0.0041 0.0038 0.0041 0.0048 0.0050 0.0051 0.0049 0.0050 
3758.459156 0.0052 0.0050 0.0046 0.0047 0.0048 0.0049 0.0050 0.0048 0.0048 
3767.139200 0.0051 0.0052 0.0048 0.0045 0.0046 0.0050 0.0052 0.0052 0.0052 
3775.819244 0.0052 0.0050 0.0050 0.0049 0.0047 0.0048 0.0049 0.0051 0.0052 
3784.499289 0.0050 0.0049 0.0050 0.0051 0.0052 0.0052 0.0051 0.0051 0.0051 
3793.179333 0.0051 0.0052 0.0053 0.0049 0.0047 0.0050 0.0052 0.0051 0.0047 
3801.859377 0.0042 0.0047 0.0052 0.0056 0.0054 0.0048 0.0048 0.0054 0.0057 
3810.539421 0.0059 0.0060 0.0059 0.0059 0.0057 0.0053 0.0051 0.0055 0.0058 
3819.219466 0.0058 0.0054 0.0049 0.0054 0.0059 0.0060 0.0061 0.0062 0.0061 
3827.899510 0.0062 0.0063 0.0064 0.0064 0.0064 0.0063 0.0063 0.0062 0.0062 
3836.579554 0.0063 0.0061 0.0056 0.0057 0.0060 0.0064 0.0064 0.0062 0.0061 
3845.259598 0.0062 0.0064 0.0065 0.0065 0.0064 0.0063 0.0061 0.0055 0.0046 
3853.939643 0.0042 0.0051 0.0058 0.0060 0.0060 0.0060 0.0060 0.0060 0.0059 
3862.619687 0.0058 0.0057 0.0054 0.0053 0.0056 0.0058 0.0056 0.0051 0.0050 
3871.299731 0.0054 0.0056 0.0057 0.0055 0.0054 0.0056 0.0057 0.0056 0.0055 
3879.979775 0.0055 0.0053 0.0053 0.0053 0.0053 0.0054 0.0053 0.0052 0.0053 
3888.659820 0.0055 0.0055 0.0052 0.0049 0.0051 0.0054 0.0056 0.0055 0.0055 
3897.339864 0.0054 0.0052 0.0053 0.0053 0.0053 0.0053 0.0053 0.0052 0.0052 
3906.019908 0.0055 0.0055 0.0054 0.0054 0.0054 0.0054 0.0054 0.0053 0.0053 
3914.699952 0.0055 0.0056 0.0057 0.0056 0.0054 0.0055 0.0055 0.0055 0.0054 
3923.379996 0.0054 0.0053 0.0053 0.0054 0.0054 0.0055 0.0055 0.0055 0.0057 
3932.060041 0.0058 0.0059 0.0059 0.0058 0.0057 0.0058 0.0060 0.0060 0.0059 
3940.740085 0.0060 0.0061 0.0063 0.0065 0.0065 0.0065 0.0066 0.0068 0.0069 
3949.420129 0.0069 0.0068 0.0068 0.0070 0.0071 0.0072 0.0074 0.0075 0.0075 
3958.100173 0.0077 0.0078 0.0077 0.0078 0.0079 0.0079 0.0080 0.0081 0.0082 
3966.780218 0.0082 0.0083 0.0083 0.0084 0.0085 0.0086 0.0087 0.0088 0.0089 
3975.460262 0.0091 0.0092 0.0091 0.0090 0.0090 0.0092 0.0092 0.0093 0.0095 
3984.140306 0.0095 0.0096 0.0098 0.0097 0.0098 0.0099 0.0099 0.0099 0.0098 
3992.820350 0.0097 0.0096 0.0097 0.0097 0.0096 0.0096 0.0094 0.0093 0.0095 
##END=
