##JCAMP-DX=5.01
##FILENAME=KAM-05.jdx
##XUNITS=1/CM
##YUNITS=ABSORBANCE
##FIRSTX=399.282035
##LASTX=4000.535945
##MAXX=4000.535945
##MINX=399.282035
##FIRSTY=0.0131
##LASTY=0.0046
##MAXY=0.9183
##MINY=0.0010
##NPOINTS=3735
##XFACTOR=1
##YFACTOR=1
##XYDATA=(X++(Y..Y))
399.282035 0.0131 0.0029 0.0010 0.0013 0.0079 0.0080 0.0010 0.0010 0.0010 0.0032 
408.926529 0.0076 0.0122 0.0111 0.0068 0.0044 0.0068 0.0133 0.0157 0.0151 0.0140 
418.571022 0.0094 0.0113 0.0156 0.0196 0.0212 0.0297 0.0359 0.0397 0.0450 0.0511 
428.215516 0.0564 0.0655 0.0743 0.0817 0.0894 0.0970 0.1006 0.1015 0.1015 0.0986 
437.860009 0.0908 0.0830 0.0746 0.0642 0.0558 0.0475 0.0385 0.0309 0.0267 0.0232 
447.504503 0.0197 0.0185 0.0174 0.0157 0.0142 0.0124 0.0114 0.0113 0.0109 0.0093 
457.148997 0.0071 0.0066 0.0088 0.0092 0.0079 0.0087 0.0090 0.0090 0.0088 0.0070 
466.793490 0.0061 0.0077 0.0083 0.0068 0.0078 0.0087 0.0070 0.0053 0.0051 0.0068 
476.437984 0.0081 0.0081 0.0074 0.0072 0.0067 0.0065 0.0075 0.0082 0.0082 0.0092 
486.082477 0.0099 0.0107 0.0121 0.0137 0.0139 0.0136 0.0145 0.0154 0.0165 0.0159 
495.726971 0.0145 0.0142 0.0146 0.0147 0.0144 0.0143 0.0130 0.0121 0.0122 0.0118 
505.371465 0.0121 0.0120 0.0116 0.0120 0.0108 0.0100 0.0103 0.0102 0.0097 0.0094 
515.015958 0.0095 0.0097 0.0098 0.0090 0.0091 0.0095 0.0091 0.0092 0.0094 0.0095 
524.660452 0.0097 0.0103 0.0105 0.0102 0.0101 0.0095 0.0093 0.0089 0.0111 0.0133 
534.304945 0.0115 0.0113 0.0129 0.0133 0.0137 0.0142 0.0144 0.0159 0.0168 0.0178 
543.949439 0.0183 0.0191 0.0201 0.0213 0.0229 0.0240 0.0250 0.0273 0.0296 0.0324 
553.593933 0.0359 0.0398 0.0437 0.0483 0.0540 0.0601 0.0669 0.0752 0.0841 0.0938 
563.238426 0.1039 0.1150 0.1259 0.1363 0.1465 0.1553 0.1612 0.1640 0.1625 0.1576 
572.882920 0.1498 0.1395 0.1280 0.1156 0.1026 0.0913 0.0808 0.0716 0.0634 0.0565 
582.527413 0.0510 0.0464 0.0422 0.0387 0.0356 0.0331 0.0307 0.0285 0.0266 0.0254 
592.171907 0.0242 0.0230 0.0218 0.0210 0.0203 0.0196 0.0190 0.0184 0.0179 0.0176 
601.816401 0.0169 0.0166 0.0161 0.0155 0.0151 0.0149 0.0146 0.0140 0.0132 0.0130 
611.460894 0.0129 0.0127 0.0124 0.0121 0.0119 0.0117 0.0116 0.0115 0.0112 0.0109 
621.105388 0.0107 0.0106 0.0106 0.0107 0.0107 0.0105 0.0103 0.0102 0.0101 0.0103 
630.749881 0.0103 0.0108 0.0113 0.0116 0.0117 0.0120 0.0121 0.0125 0.0129 0.0131 
640.394375 0.0132 0.0133 0.0133 0.0137 0.0141 0.0145 0.0146 0.0148 0.0149 0.0150 
650.038869 0.0010 0.0010 0.0010 0.0010 0.0010 0.0010 0.0010 0.0010 0.0010 0.0010 
659.683362 0.0010 0.0010 0.0010 0.0010 0.0010 0.0010 0.0010 0.0010 0.0010 0.0010 
669.327856 0.0010 0.0010 0.0010 0.0010 0.0010 0.0010 0.0010 0.0010 0.0010 0.0010 
678.972349 0.0010 0.0010 0.0010 0.0010 0.0010 0.0010 0.0010 0.0010 0.0010 0.0010 
688.616843 0.0010 0.0010 0.0010 0.0010 0.0010 0.0010 0.0010 0.0010 0.0010 0.0010 
698.261337 0.0010 0.0010 0.0010 0.0010 0.0010 0.0010 0.0010 0.0010 0.0010 0.0010 
707.905830 0.0010 0.0010 0.0010 0.0010 0.0010 0.0010 0.0010 0.0010 0.0010 0.0010 
717.550324 0.0010 0.0010 0.0010 0.0010 0.0010 0.0010 0.0010 0.0010 0.0010 0.0010 
727.194817 0.0010 0.0010 0.0010 0.0010 0.0010 0.0010 0.0010 0.0010 0.0010 0.0010 
736.839311 0.0010 0.0010 0.0010 0.0010 0.0010 0.0010 0.0010 0.0010 0.0010 0.0010 
746.483805 0.0010 0.0010 0.0010 0.0010 0.0010 0.0010 0.0010 0.0010 0.0010 0.0010 
756.128298 0.0010 0.0010 0.0010 0.0010 0.0010 0.0010 0.0010 0.0010 0.0010 0.0010 
765.772792 0.0010 0.0010 0.0010 0.0010 0.0010 0.0010 0.0010 0.0010 0.0010 0.0010 
775.417285 0.0010 0.0010 0.0010 0.0010 0.0010 0.0010 0.0010 0.0010 0.0010 0.0010 
785.061779 0.0010 0.0010 0.0010 0.0010 0.0010 0.0010 0.0010 0.0010 0.0010 0.0010 
794.706273 0.0010 0.0010 0.0010 0.0010 0.0010 0.0010 0.0010 0.0010 0.0010 0.0010 
804.350766 0.0010 0.0010 0.0010 0.0010 0.0010 0.0010 0.0010 0.0010 0.0010 0.0010 
813.995260 0.0010 0.0010 0.0010 0.0010 0.0010 0.0010 0.0010 0.0010 0.0010 0.0010 
823.639753 0.0010 0.0010 0.0010 0.0010 0.0010 0.0010 0.0010 0.0010 0.0010 0.0010 
833.284247 0.0010 0.0010 0.0010 0.0010 0.0010 0.0010 0.0010 0.0010 0.0010 0.0010 
842.928741 0.0010 0.0010 0.0010 0.0010 0.0010 0.0010 0.0010 0.0010 0.0010 0.0010 
852.573234 0.0010 0.0010 0.0010 0.0010 0.0010 0.0010 0.0010 0.0010 0.0200 0.0212 
862.217728 0.0222 0.0233 0.0243 0.0253 0.0263 0.0273 0.0283 0.0294 0.0304 0.0314 
871.862221 0.0324 0.0332 0.0341 0.0352 0.0363 0.0372 0.0382 0.0393 0.0402 0.0414 
881.506715 0.0426 0.0439 0.0453 0.0471 0.0491 0.0513 0.0539 0.0569 0.0605 0.0649 
891.151209 0.0698 0.0754 0.0819 0.0892 0.0976 0.1071 0.1182 0.1318 0.1485 0.1689 
900.795702 0.1936 0.2227 0.2553 0.2894 0.3212 0.3470 0.3643 0.3747 0.3828 0.3934 
910.440196 0.4103 0.4359 0.4708 0.5150 0.5669 0.6236 0.6794 0.7256 0.7515 0.7460 
920.084689 0.7062 0.6385 0.5559 0.4720 0.3955 0.3301 0.2760 0.2323 0.1973 0.1696 
929.729183 0.1476 0.1299 0.1158 0.1045 0.0951 0.0875 0.0810 0.0756 0.0709 0.0670 
939.373677 0.0635 0.0605 0.0578 0.0553 0.0531 0.0512 0.0493 0.0475 0.0458 0.0443 
949.018170 0.0429 0.0415 0.0402 0.0390 0.0377 0.0365 0.0354 0.0344 0.0334 0.0326 
958.662664 0.0316 0.0308 0.0301 0.0294 0.0288 0.0282 0.0276 0.0270 0.0266 0.0263 
968.307157 0.0258 0.0255 0.0254 0.0253 0.0252 0.0253 0.0255 0.0257 0.0260 0.0264 
977.951651 0.0269 0.0276 0.0283 0.0292 0.0299 0.0307 0.0314 0.0321 0.0327 0.0333 
987.596145 0.0339 0.0345 0.0350 0.0355 0.0360 0.0368 0.0377 0.0386 0.0395 0.0406 
997.240638 0.0417 0.0430 0.0444 0.0461 0.0483 0.0508 0.0539 0.0577 0.0622 0.0675 
1006.885132 0.0737 0.0811 0.0900 0.1011 0.1145 0.1304 0.1479 0.1650 0.1775 
1015.565176 0.1816 0.1765 0.1649 0.1502 0.1356 0.1221 0.1101 0.0996 0.0905 
1024.245220 0.0826 0.0758 0.0700 0.0651 0.0610 0.0576 0.0548 0.0526 0.0508 
1032.925265 0.0494 0.0484 0.0477 0.0472 0.0468 0.0464 0.0460 0.0452 0.0442 
1041.605309 0.0429 0.0415 0.0398 0.0381 0.0364 0.0348 0.0333 0.0318 0.0305 
1050.285353 0.0296 0.0287 0.0280 0.0274 0.0269 0.0266 0.0265 0.0265 0.0268 
1058.965397 0.0272 0.0278 0.0286 0.0297 0.0311 0.0328 0.0347 0.0367 0.0388 
1067.645442 0.0409 0.0427 0.0443 0.0459 0.0480 0.0507 0.0544 0.0594 0.0661 
1076.325486 0.0752 0.0874 0.1032 0.1231 0.1450 0.1621 0.1640 0.1476 0.1215 
1085.005530 0.0967 0.0777 0.0645 0.0551 0.0486 0.0437 0.0402 0.0376 0.0357 
1093.685574 0.0342 0.0331 0.0323 0.0319 0.0317 0.0317 0.0319 0.0323 0.0328 
1102.365618 0.0336 0.0346 0.0359 0.0374 0.0393 0.0414 0.0440 0.0471 0.0505 
1111.045663 0.0543 0.0587 0.0635 0.0687 0.0741 0.0795 0.0845 0.0884 0.0908 
1119.725707 0.0910 0.0887 0.0844 0.0786 0.0720 0.0653 0.0592 0.0535 0.0485 
1128.405751 0.0442 0.0407 0.0376 0.0350 0.0328 0.0309 0.0292 0.0278 0.0266 
1137.085795 0.0254 0.0244 0.0235 0.0225 0.0217 0.0209 0.0201 0.0193 0.0187 
1145.765840 0.0181 0.0176 0.0171 0.0167 0.0162 0.0158 0.0154 0.0151 0.0148 
1154.445884 0.0144 0.0140 0.0137 0.0135 0.0132 0.0129 0.0127 0.0124 0.0122 
1163.125928 0.0120 0.0118 0.0116 0.0114 0.0113 0.0112 0.0110 0.0109 0.0108 
1171.805972 0.0107 0.0107 0.0106 0.0105 0.0106 0.0105 0.0105 0.0104 0.0104 
1180.486017 0.0103 0.0103 0.0102 0.0101 0.0101 0.0101 0.0100 0.0101 0.0100 
1189.166061 0.0100 0.0100 0.0100 0.0099 0.0099 0.0099 0.0099 0.0098 0.0098 
1197.846105 0.0098 0.0098 0.0098 0.0098 0.0097 0.0098 0.0098 0.0099 0.0100 
1206.526149 0.0100 0.0101 0.0103 0.0104 0.0107 0.0110 0.0114 0.0118 0.0123 
1215.206194 0.0128 0.0133 0.0140 0.0148 0.0158 0.0169 0.0182 0.0195 0.0210 
1223.886238 0.0228 0.0247 0.0271 0.0295 0.0322 0.0351 0.0384 0.0419 0.0456 
1232.566282 0.0496 0.0539 0.0581 0.0624 0.0664 0.0698 0.0723 0.0736 0.0735 
1241.246326 0.0719 0.0690 0.0650 0.0603 0.0555 0.0510 0.0471 0.0438 0.0413 
1249.926371 0.0394 0.0382 0.0372 0.0366 0.0358 0.0348 0.0334 0.0317 0.0297 
1258.606415 0.0277 0.0259 0.0243 0.0230 0.0222 0.0215 0.0211 0.0209 0.0207 
1267.286459 0.0206 0.0206 0.0207 0.0209 0.0210 0.0214 0.0218 0.0223 0.0228 
1275.966503 0.0234 0.0241 0.0249 0.0256 0.0265 0.0274 0.0284 0.0293 0.0303 
1284.646548 0.0313 0.0322 0.0331 0.0338 0.0343 0.0345 0.0345 0.0341 0.0333 
1293.326592 0.0323 0.0309 0.0294 0.0278 0.0262 0.0246 0.0232 0.0219 0.0207 
1302.006636 0.0198 0.0191 0.0186 0.0183 0.0182 0.0182 0.0183 0.0185 0.0187 
1310.686680 0.0191 0.0195 0.0201 0.0207 0.0216 0.0226 0.0239 0.0256 0.0275 
1319.366724 0.0299 0.0326 0.0354 0.0386 0.0421 0.0458 0.0496 0.0534 0.0567 
1328.046769 0.0592 0.0602 0.0595 0.0572 0.0538 0.0501 0.0464 0.0431 0.0404 
1336.726813 0.0378 0.0357 0.0339 0.0323 0.0305 0.0290 0.0276 0.0265 0.0253 
1345.406857 0.0242 0.0231 0.0221 0.0211 0.0203 0.0195 0.0189 0.0182 0.0178 
1354.086901 0.0173 0.0170 0.0167 0.0166 0.0165 0.0165 0.0164 0.0166 0.0167 
1362.766946 0.0170 0.0175 0.0179 0.0184 0.0191 0.0198 0.0208 0.0218 0.0229 
1371.446990 0.0239 0.0250 0.0263 0.0280 0.0298 0.0317 0.0337 0.0364 0.0398 
1380.127034 0.0439 0.0484 0.0535 0.0587 0.0628 0.0642 0.0624 0.0576 0.0495 
1388.807078 0.0432 0.0388 0.0352 0.0327 0.0311 0.0302 0.0298 0.0300 0.0306 
1397.487123 0.0315 0.0328 0.0354 0.0383 0.0416 0.0464 0.0526 0.0603 0.0739 
1406.167167 0.0896 0.1064 0.1266 0.1437 0.1515 0.1472 0.1339 0.1189 0.1062 
1414.847211 0.0959 0.0875 0.0798 0.0726 0.0677 0.0613 0.0578 0.0561 0.0548 
1423.527255 0.0542 0.0540 0.0536 0.0531 0.0523 0.0512 0.0496 0.0476 0.0458 
1432.207300 0.0441 0.0423 0.0406 0.0392 0.0382 0.0373 0.0368 0.0365 0.0365 
1440.887344 0.0370 0.0377 0.0389 0.0407 0.0431 0.0461 0.0496 0.0541 0.0603 
1449.567388 0.0634 0.0644 0.0632 0.0606 0.0587 0.0581 0.0590 0.0615 0.0708 
1458.247432 0.0813 0.0963 0.1077 0.1114 0.1084 0.1021 0.0968 0.0887 0.0790 
1466.927477 0.0698 0.0594 0.0505 0.0437 0.0388 0.0349 0.0308 0.0283 0.0266 
1475.607521 0.0253 0.0240 0.0228 0.0219 0.0209 0.0200 0.0193 0.0187 0.0180 
1484.287565 0.0173 0.0166 0.0160 0.0151 0.0144 0.0139 0.0134 0.0129 0.0124 
1492.967609 0.0121 0.0117 0.0112 0.0109 0.0105 0.0101 0.0096 0.0093 0.0010 
1501.647654 0.0010 0.0010 0.0010 0.0010 0.0010 0.0010 0.0010 0.0010 0.0010 
1510.327698 0.0010 0.0010 0.0010 0.0010 0.0010 0.0010 0.0010 0.0010 0.0010 
1519.007742 0.0010 0.0010 0.0010 0.0010 0.0010 0.0010 0.0010 0.0010 0.0010 
1527.687786 0.0010 0.0010 0.0010 0.0010 0.0010 0.0010 0.0010 0.0010 0.0010 
1536.367830 0.0010 0.0010 0.0010 0.0010 0.0010 0.0010 0.0010 0.0010 0.0010 
1545.047875 0.0010 0.0010 0.0010 0.0010 0.0010 0.0010 0.0010 0.0010 0.0010 
1553.727919 0.0010 0.0010 0.0010 0.0010 0.0010 0.0010 0.0010 0.0010 0.0010 
1562.407963 0.0010 0.0010 0.0010 0.0010 0.0010 0.0010 0.0010 0.0010 0.0010 
1571.088007 0.0010 0.0010 0.0010 0.0010 0.0010 0.0010 0.0010 0.0010 0.0010 
1579.768052 0.0010 0.0010 0.0010 0.0010 0.0010 0.0010 0.0010 0.0010 0.0010 
1588.448096 0.0010 0.0010 0.0010 0.0010 0.0010 0.0010 0.0010 0.0010 0.0010 
1597.128140 0.0010 0.0010 0.0010 0.0010 0.0010 0.0010 0.0010 0.0010 0.0010 
1605.808184 0.0010 0.0010 0.0010 0.0010 0.0010 0.0010 0.0010 0.0010 0.0010 
1614.488229 0.0010 0.0010 0.0010 0.0010 0.0010 0.0010 0.0010 0.0010 0.0010 
1623.168273 0.0010 0.0010 0.0010 0.0010 0.0010 0.0010 0.0010 0.0010 0.0010 
1631.848317 0.0010 0.0010 0.0010 0.0010 0.0010 0.0010 0.0010 0.0010 0.0010 
1640.528361 0.0010 0.0010 0.0010 0.0010 0.0010 0.0010 0.0010 0.0010 0.0010 
1649.208406 0.0010 0.0097 0.0094 0.0093 0.0095 0.0108 0.0108 0.0111 0.0112 
1657.888450 0.0115 0.0115 0.0117 0.0118 0.0120 0.0121 0.0128 0.0129 0.0132 
1666.568494 0.0134 0.0137 0.0136 0.0144 0.0148 0.0154 0.0160 0.0165 0.0167 
1675.248538 0.0178 0.0188 0.0193 0.0198 0.0207 0.0217 0.0234 0.0241 0.0249 
1683.928583 0.0257 0.0298 0.0310 0.0323 0.0337 0.0356 0.0370 0.0388 0.0401 
1692.608627 0.0415 0.0427 0.0438 0.0449 0.0489 0.0503 0.0523 0.0533 0.0597 
1701.288671 0.0667 0.0699 0.0742 0.0815 0.0904 0.1001 0.1146 0.1279 0.1415 
1709.968715 0.1602 0.1825 0.2029 0.2226 0.2414 0.2590 0.2706 0.2724 0.2663 
1718.648760 0.2422 0.2218 0.2022 0.1790 0.1568 0.1356 0.1165 0.1023 0.0900 
1727.328804 0.0797 0.0715 0.0654 0.0589 0.0541 0.0512 0.0487 0.0460 0.0440 
1736.008848 0.0431 0.0426 0.0421 0.0417 0.0420 0.0430 0.0433 0.0441 0.0456 
1744.688892 0.0471 0.0484 0.0503 0.0523 0.0548 0.0572 0.0590 0.0620 0.0644 
1753.368936 0.0653 0.0666 0.0673 0.0681 0.0689 0.0698 0.0702 0.0711 0.0716 
1762.048981 0.0740 0.0757 0.0779 0.0805 0.0842 0.0876 0.0929 0.1005 0.1064 
1770.729025 0.1124 0.1223 0.1356 0.1502 0.1598 0.1753 0.1944 0.2128 0.2347 
1779.409069 0.2601 0.2903 0.3318 0.3710 0.4147 0.4645 0.5317 0.5981 0.6577 
1788.089113 0.7233 0.7823 0.8323 0.8741 0.9083 0.9183 0.9102 0.8863 0.8489 
1796.769158 0.7862 0.7266 0.6659 0.5942 0.5258 0.4769 0.4238 0.3840 0.3525 
1805.449202 0.3260 0.3038 0.2875 0.2729 0.2640 0.2568 0.2528 0.2504 0.2511 
1814.129246 0.2521 0.2553 0.2578 0.2608 0.2613 0.2607 0.2566 0.2516 0.2443 
1822.809290 0.2369 0.2290 0.2229 0.2141 0.2089 0.2045 0.2019 0.1996 0.1997 
1831.489335 0.1998 0.2020 0.2049 0.2095 0.2140 0.2193 0.2242 0.2289 0.2309 
1840.169379 0.2317 0.2288 0.2234 0.2153 0.2036 0.1824 0.1685 0.1534 0.1369 
1848.849423 0.1203 0.1076 0.0953 0.0852 0.0758 0.0684 0.0615 0.0563 0.0512 
1857.529467 0.0474 0.0436 0.0408 0.0379 0.0359 0.0336 0.0320 0.0302 0.0290 
1866.209512 0.0275 0.0265 0.0252 0.0246 0.0235 0.0230 0.0220 0.0215 0.0208 
1874.889556 0.0204 0.0197 0.0194 0.0187 0.0185 0.0179 0.0177 0.0171 0.0169 
1883.569600 0.0164 0.0161 0.0157 0.0156 0.0152 0.0151 0.0148 0.0149 0.0145 
1892.249644 0.0145 0.0143 0.0143 0.0141 0.0142 0.0140 0.0141 0.0140 0.0141 
1900.929689 0.0140 0.0141 0.0140 0.0142 0.0141 0.0143 0.0143 0.0145 0.0146 
1909.609733 0.0148 0.0149 0.0153 0.0154 0.0158 0.0161 0.0166 0.0168 0.0172 
1918.289777 0.0177 0.0184 0.0187 0.0193 0.0197 0.0205 0.0209 0.0214 0.0217 
1926.969821 0.0221 0.0223 0.0225 0.0223 0.0221 0.0215 0.0208 0.0198 0.0190 
1935.649866 0.0179 0.0169 0.0158 0.0149 0.0139 0.0132 0.0124 0.0119 0.0112 
1944.329910 0.0107 0.0102 0.0098 0.0094 0.0091 0.0087 0.0085 0.0081 0.0079 
1953.009954 0.0076 0.0075 0.0073 0.0072 0.0070 0.0069 0.0066 0.0065 0.0064 
1961.689998 0.0064 0.0063 0.0062 0.0061 0.0060 0.0059 0.0060 0.0059 0.0058 
1970.370042 0.0057 0.0057 0.0055 0.0055 0.0053 0.0053 0.0052 0.0052 0.0051 
1979.050087 0.0051 0.0049 0.0050 0.0050 0.0050 0.0049 0.0050 0.0049 0.0050 
1987.730131 0.0050 0.0051 0.0050 0.0050 0.0050 0.0052 0.0052 0.0052 0.0052 
1996.410175 0.0052 0.0052 0.0053 0.0053 0.0054 0.0054 0.0054 0.0054 0.0055 
2005.090219 0.0055 0.0056 0.0057 0.0058 0.0059 0.0060 0.0060 0.0061 0.0062 
2013.770264 0.0064 0.0064 0.0066 0.0066 0.0068 0.0069 0.0070 0.0070 0.0071 
2022.450308 0.0071 0.0073 0.0072 0.0073 0.0073 0.0073 0.0073 0.0073 0.0072 
2031.130352 0.0071 0.0070 0.0070 0.0068 0.0068 0.0066 0.0065 0.0063 0.0062 
2039.810396 0.0061 0.0061 0.0060 0.0060 0.0058 0.0058 0.0057 0.0056 0.0055 
2048.490441 0.0054 0.0053 0.0054 0.0053 0.0053 0.0052 0.0052 0.0051 0.0051 
2057.170485 0.0049 0.0049 0.0049 0.0049 0.0048 0.0048 0.0047 0.0047 0.0047 
2065.850529 0.0047 0.0046 0.0046 0.0045 0.0045 0.0044 0.0044 0.0044 0.0045 
2074.530573 0.0044 0.0044 0.0043 0.0043 0.0042 0.0043 0.0042 0.0041 0.0040 
2083.210618 0.0040 0.0040 0.0040 0.0039 0.0039 0.0038 0.0038 0.0038 0.0038 
2091.890662 0.0037 0.0037 0.0036 0.0036 0.0036 0.0036 0.0036 0.0036 0.0035 
2100.570706 0.0035 0.0035 0.0035 0.0035 0.0036 0.0036 0.0036 0.0036 0.0037 
2109.250750 0.0036 0.0037 0.0037 0.0037 0.0037 0.0038 0.0038 0.0039 0.0039 
2117.930795 0.0040 0.0040 0.0042 0.0042 0.0042 0.0042 0.0043 0.0043 0.0044 
2126.610839 0.0045 0.0045 0.0045 0.0046 0.0046 0.0047 0.0047 0.0048 0.0048 
2135.290883 0.0049 0.0049 0.0050 0.0050 0.0051 0.0051 0.0052 0.0051 0.0052 
2143.970927 0.0052 0.0053 0.0053 0.0053 0.0054 0.0054 0.0054 0.0054 0.0055 
2152.650972 0.0055 0.0054 0.0055 0.0054 0.0054 0.0054 0.0054 0.0054 0.0053 
2161.331016 0.0053 0.0053 0.0053 0.0053 0.0053 0.0052 0.0051 0.0052 0.0052 
2170.011060 0.0053 0.0052 0.0052 0.0052 0.0052 0.0051 0.0052 0.0051 0.0051 
2178.691104 0.0051 0.0052 0.0051 0.0052 0.0052 0.0053 0.0052 0.0053 0.0054 
2187.371148 0.0055 0.0055 0.0056 0.0056 0.0056 0.0055 0.0055 0.0054 0.0053 
2196.051193 0.0051 0.0050 0.0049 0.0049 0.0047 0.0046 0.0045 0.0045 0.0044 
2204.731237 0.0044 0.0044 0.0045 0.0044 0.0044 0.0044 0.0045 0.0044 0.0045 
2213.411281 0.0045 0.0047 0.0047 0.0047 0.0047 0.0049 0.0050 0.0051 0.0052 
2222.091325 0.0054 0.0055 0.0057 0.0058 0.0060 0.0062 0.0063 0.0064 0.0065 
2230.771370 0.0065 0.0066 0.0066 0.0066 0.0066 0.0065 0.0064 0.0064 0.0063 
2239.451414 0.0063 0.0062 0.0062 0.0062 0.0062 0.0061 0.0061 0.0060 0.0060 
2248.131458 0.0059 0.0059 0.0059 0.0058 0.0058 0.0058 0.0057 0.0057 0.0057 
2256.811502 0.0057 0.0057 0.0056 0.0056 0.0057 0.0056 0.0055 0.0055 0.0055 
2265.491547 0.0054 0.0054 0.0053 0.0053 0.0053 0.0053 0.0052 0.0051 0.0051 
2274.171591 0.0051 0.0051 0.0051 0.0051 0.0051 0.0049 0.0050 0.0050 0.0049 
2282.851635 0.0049 0.0049 0.0049 0.0048 0.0048 0.0048 0.0047 0.0047 0.0047 
2291.531679 0.0048 0.0049 0.0049 0.0049 0.0050 0.0050 0.0050 0.0051 0.0052 
2300.211724 0.0052 0.0052 0.0052 0.0054 0.0053 0.0054 0.0054 0.0055 0.0055 
2308.891768 0.0056 0.0056 0.0056 0.0057 0.0058 0.0059 0.0058 0.0058 0.0058 
2317.571812 0.0060 0.0061 0.0064 0.0064 0.0066 0.0066 0.0067 0.0067 0.0067 
2326.251856 0.0067 0.0068 0.0069 0.0070 0.0071 0.0072 0.0073 0.0073 0.0072 
2334.931901 0.0071 0.0072 0.0073 0.0071 0.0069 0.0071 0.0072 0.0072 0.0071 
2343.611945 0.0072 0.0073 0.0073 0.0071 0.0069 0.0068 0.0068 0.0069 0.0071 
2352.291989 0.0071 0.0070 0.0070 0.0072 0.0074 0.0075 0.0075 0.0077 0.0077 
2360.972033 0.0076 0.0076 0.0076 0.0076 0.0076 0.0077 0.0076 0.0075 0.0075 
2369.652078 0.0074 0.0073 0.0071 0.0071 0.0069 0.0070 0.0070 0.0069 0.0068 
2378.332122 0.0068 0.0067 0.0066 0.0065 0.0064 0.0063 0.0062 0.0062 0.0061 
2387.012166 0.0060 0.0060 0.0060 0.0061 0.0061 0.0062 0.0062 0.0062 0.0062 
2395.692210 0.0063 0.0063 0.0063 0.0064 0.0065 0.0065 0.0065 0.0065 0.0064 
2404.372254 0.0064 0.0063 0.0063 0.0062 0.0062 0.0063 0.0062 0.0062 0.0062 
2413.052299 0.0062 0.0062 0.0062 0.0063 0.0064 0.0064 0.0065 0.0065 0.0066 
2421.732343 0.0066 0.0067 0.0068 0.0068 0.0068 0.0068 0.0068 0.0068 0.0068 
2430.412387 0.0068 0.0068 0.0068 0.0068 0.0068 0.0068 0.0069 0.0069 0.0070 
2439.092431 0.0071 0.0071 0.0071 0.0072 0.0073 0.0073 0.0074 0.0076 0.0076 
2447.772476 0.0077 0.0078 0.0079 0.0080 0.0082 0.0083 0.0084 0.0085 0.0086 
2456.452520 0.0087 0.0089 0.0090 0.0091 0.0092 0.0092 0.0092 0.0091 0.0091 
2465.132564 0.0091 0.0090 0.0089 0.0089 0.0089 0.0089 0.0088 0.0088 0.0088 
2473.812608 0.0088 0.0089 0.0089 0.0090 0.0090 0.0091 0.0091 0.0091 0.0092 
2482.492653 0.0092 0.0093 0.0093 0.0094 0.0094 0.0094 0.0095 0.0095 0.0095 
2491.172697 0.0095 0.0095 0.0095 0.0096 0.0095 0.0095 0.0095 0.0096 0.0096 
2499.852741 0.0096 0.0097 0.0097 0.0098 0.0098 0.0099 0.0099 0.0099 0.0099 
2508.532785 0.0100 0.0100 0.0100 0.0101 0.0101 0.0102 0.0103 0.0103 0.0105 
2517.212830 0.0105 0.0106 0.0107 0.0108 0.0109 0.0110 0.0111 0.0111 0.0112 
2525.892874 0.0114 0.0114 0.0115 0.0116 0.0117 0.0118 0.0119 0.0120 0.0121 
2534.572918 0.0123 0.0124 0.0126 0.0127 0.0129 0.0130 0.0131 0.0132 0.0134 
2543.252962 0.0135 0.0137 0.0138 0.0139 0.0142 0.0144 0.0145 0.0146 0.0148 
2551.933007 0.0149 0.0150 0.0152 0.0153 0.0154 0.0155 0.0157 0.0158 0.0158 
2560.613051 0.0158 0.0158 0.0158 0.0158 0.0158 0.0159 0.0158 0.0158 0.0158 
2569.293095 0.0157 0.0156 0.0155 0.0155 0.0155 0.0154 0.0153 0.0152 0.0152 
2577.973139 0.0151 0.0150 0.0149 0.0149 0.0148 0.0148 0.0148 0.0148 0.0148 
2586.653184 0.0147 0.0147 0.0147 0.0147 0.0148 0.0148 0.0147 0.0148 0.0149 
2595.333228 0.0149 0.0149 0.0149 0.0149 0.0149 0.0150 0.0150 0.0150 0.0150 
2604.013272 0.0151 0.0151 0.0151 0.0151 0.0150 0.0150 0.0150 0.0151 0.0151 
2612.693316 0.0151 0.0152 0.0153 0.0154 0.0155 0.0156 0.0157 0.0158 0.0160 
2621.373360 0.0163 0.0164 0.0166 0.0168 0.0169 0.0171 0.0173 0.0175 0.0177 
2630.053405 0.0180 0.0183 0.0184 0.0186 0.0187 0.0189 0.0190 0.0191 0.0192 
2638.733449 0.0193 0.0193 0.0193 0.0193 0.0194 0.0194 0.0193 0.0193 0.0194 
2647.413493 0.0194 0.0194 0.0195 0.0195 0.0195 0.0196 0.0197 0.0197 0.0197 
2656.093537 0.0198 0.0199 0.0200 0.0200 0.0200 0.0200 0.0201 0.0201 0.0202 
2664.773582 0.0202 0.0202 0.0202 0.0203 0.0202 0.0202 0.0201 0.0202 0.0201 
2673.453626 0.0201 0.0201 0.0201 0.0201 0.0202 0.0202 0.0202 0.0203 0.0204 
2682.133670 0.0204 0.0204 0.0204 0.0204 0.0204 0.0205 0.0205 0.0204 0.0204 
2690.813714 0.0205 0.0205 0.0204 0.0204 0.0203 0.0202 0.0202 0.0202 0.0200 
2699.493759 0.0199 0.0197 0.0196 0.0194 0.0193 0.0192 0.0190 0.0188 0.0188 
2708.173803 0.0187 0.0186 0.0185 0.0184 0.0184 0.0184 0.0183 0.0182 0.0182 
2716.853847 0.0182 0.0182 0.0182 0.0183 0.0183 0.0183 0.0184 0.0184 0.0185 
2725.533891 0.0186 0.0187 0.0188 0.0188 0.0189 0.0190 0.0191 0.0193 0.0194 
2734.213936 0.0195 0.0197 0.0197 0.0198 0.0199 0.0200 0.0201 0.0203 0.0204 
2742.893980 0.0204 0.0205 0.0206 0.0208 0.0208 0.0208 0.0208 0.0207 0.0206 
2751.574024 0.0204 0.0203 0.0202 0.0201 0.0200 0.0200 0.0199 0.0199 0.0199 
2760.254068 0.0200 0.0200 0.0200 0.0199 0.0200 0.0200 0.0200 0.0200 0.0200 
2768.934113 0.0200 0.0200 0.0200 0.0200 0.0200 0.0201 0.0201 0.0201 0.0201 
2777.614157 0.0201 0.0201 0.0202 0.0203 0.0203 0.0204 0.0205 0.0206 0.0207 
2786.294201 0.0207 0.0208 0.0209 0.0210 0.0211 0.0212 0.0213 0.0213 0.0215 
2794.974245 0.0216 0.0217 0.0218 0.0219 0.0221 0.0222 0.0224 0.0227 0.0229 
2803.654290 0.0231 0.0233 0.0235 0.0235 0.0236 0.0236 0.0236 0.0236 0.0235 
2812.334334 0.0235 0.0235 0.0234 0.0234 0.0235 0.0236 0.0236 0.0237 0.0239 
2821.014378 0.0240 0.0241 0.0242 0.0244 0.0246 0.0248 0.0249 0.0251 0.0253 
2829.694422 0.0256 0.0257 0.0258 0.0259 0.0261 0.0263 0.0265 0.0266 0.0268 
2838.374466 0.0270 0.0272 0.0274 0.0275 0.0275 0.0276 0.0275 0.0274 0.0274 
2847.054511 0.0275 0.0275 0.0276 0.0277 0.0278 0.0279 0.0280 0.0281 0.0284 
2855.734555 0.0285 0.0287 0.0289 0.0291 0.0294 0.0297 0.0300 0.0304 0.0308 
2864.414599 0.0313 0.0319 0.0325 0.0333 0.0341 0.0349 0.0358 0.0367 0.0377 
2873.094643 0.0389 0.0403 0.0419 0.0438 0.0457 0.0479 0.0500 0.0521 0.0540 
2881.774688 0.0553 0.0562 0.0565 0.0563 0.0555 0.0544 0.0531 0.0518 0.0507 
2890.454732 0.0496 0.0487 0.0480 0.0474 0.0470 0.0467 0.0465 0.0464 0.0465 
2899.134776 0.0467 0.0470 0.0475 0.0482 0.0490 0.0498 0.0505 0.0511 0.0515 
2907.814820 0.0516 0.0518 0.0521 0.0525 0.0533 0.0541 0.0550 0.0561 0.0573 
2916.494865 0.0585 0.0596 0.0606 0.0614 0.0622 0.0627 0.0630 0.0631 0.0631 
2925.174909 0.0631 0.0629 0.0629 0.0628 0.0627 0.0627 0.0629 0.0631 0.0636 
2933.854953 0.0644 0.0653 0.0666 0.0682 0.0704 0.0732 0.0768 0.0813 0.0866 
2942.534997 0.0929 0.0997 0.1061 0.1107 0.1120 0.1093 0.1034 0.0959 0.0882 
2951.215042 0.0811 0.0752 0.0706 0.0670 0.0643 0.0622 0.0606 0.0595 0.0586 
2959.895086 0.0581 0.0578 0.0577 0.0579 0.0581 0.0584 0.0589 0.0595 0.0602 
2968.575130 0.0611 0.0622 0.0634 0.0648 0.0663 0.0682 0.0702 0.0728 0.0758 
2977.255174 0.0792 0.0829 0.0872 0.0922 0.0977 0.1036 0.1101 0.1167 0.1233 
2985.935219 0.1295 0.1351 0.1395 0.1423 0.1432 0.1420 0.1390 0.1347 0.1292 
2994.615263 0.1228 0.1160 0.1091 0.1023 0.0959 0.0898 0.0842 0.0790 0.0745 
3003.295307 0.0703 0.0666 0.0635 0.0607 0.0584 0.0563 0.0544 0.0528 0.0513 
3011.975351 0.0501 0.0490 0.0480 0.0472 0.0465 0.0457 0.0451 0.0445 0.0440 
3020.655396 0.0435 0.0431 0.0426 0.0422 0.0418 0.0414 0.0411 0.0408 0.0405 
3029.335440 0.0402 0.0399 0.0397 0.0394 0.0392 0.0390 0.0389 0.0386 0.0384 
3038.015484 0.0383 0.0381 0.0379 0.0377 0.0375 0.0374 0.0373 0.0372 0.0370 
3046.695528 0.0369 0.0368 0.0366 0.0364 0.0362 0.0360 0.0359 0.0358 0.0356 
3055.375572 0.0355 0.0353 0.0351 0.0349 0.0347 0.0346 0.0344 0.0341 0.0340 
3064.055617 0.0338 0.0337 0.0336 0.0334 0.0333 0.0332 0.0332 0.0331 0.0330 
3072.735661 0.0329 0.0328 0.0327 0.0326 0.0326 0.0325 0.0325 0.0325 0.0325 
3081.415705 0.0324 0.0323 0.0323 0.0323 0.0323 0.0323 0.0322 0.0321 0.0321 
3090.095749 0.0320 0.0320 0.0320 0.0320 0.0319 0.0318 0.0318 0.0318 0.0317 
3098.775794 0.0317 0.0316 0.0315 0.0314 0.0314 0.0313 0.0312 0.0311 0.0311 
3107.455838 0.0310 0.0309 0.0309 0.0308 0.0308 0.0307 0.0306 0.0305 0.0304 
3116.135882 0.0304 0.0304 0.0303 0.0302 0.0302 0.0301 0.0301 0.0300 0.0298 
3124.815926 0.0297 0.0296 0.0295 0.0294 0.0292 0.0291 0.0290 0.0289 0.0287 
3133.495971 0.0286 0.0285 0.0284 0.0282 0.0281 0.0279 0.0278 0.0277 0.0275 
3142.176015 0.0273 0.0271 0.0270 0.0268 0.0266 0.0265 0.0263 0.0261 0.0259 
3150.856059 0.0257 0.0256 0.0254 0.0253 0.0252 0.0250 0.0249 0.0247 0.0246 
3159.536103 0.0244 0.0243 0.0242 0.0240 0.0239 0.0237 0.0236 0.0235 0.0233 
3168.216148 0.0232 0.0230 0.0229 0.0228 0.0227 0.0226 0.0224 0.0223 0.0222 
3176.896192 0.0221 0.0220 0.0220 0.0219 0.0218 0.0217 0.0215 0.0214 0.0213 
3185.576236 0.0212 0.0212 0.0211 0.0209 0.0208 0.0207 0.0206 0.0205 0.0205 
3194.256280 0.0204 0.0203 0.0202 0.0202 0.0201 0.0199 0.0198 0.0198 0.0197 
3202.936325 0.0196 0.0194 0.0194 0.0193 0.0192 0.0191 0.0190 0.0189 0.0187 
3211.616369 0.0186 0.0185 0.0184 0.0183 0.0182 0.0182 0.0181 0.0179 0.0178 
3220.296413 0.0178 0.0177 0.0176 0.0175 0.0174 0.0172 0.0172 0.0171 0.0169 
3228.976457 0.0168 0.0166 0.0165 0.0164 0.0163 0.0161 0.0160 0.0159 0.0158 
3237.656502 0.0157 0.0156 0.0154 0.0153 0.0152 0.0150 0.0149 0.0147 0.0147 
3246.336546 0.0146 0.0145 0.0143 0.0142 0.0141 0.0139 0.0138 0.0137 0.0137 
3255.016590 0.0135 0.0133 0.0131 0.0131 0.0130 0.0128 0.0127 0.0126 0.0125 
3263.696634 0.0124 0.0122 0.0121 0.0119 0.0119 0.0118 0.0117 0.0116 0.0114 
3272.376678 0.0113 0.0112 0.0111 0.0109 0.0108 0.0108 0.0106 0.0105 0.0105 
3281.056723 0.0104 0.0103 0.0102 0.0102 0.0101 0.0100 0.0099 0.0098 0.0097 
3289.736767 0.0096 0.0096 0.0095 0.0094 0.0093 0.0092 0.0092 0.0091 0.0090 
3298.416811 0.0089 0.0089 0.0089 0.0087 0.0087 0.0087 0.0086 0.0085 0.0086 
3307.096855 0.0085 0.0083 0.0082 0.0082 0.0082 0.0082 0.0081 0.0080 0.0079 
3315.776900 0.0079 0.0079 0.0079 0.0078 0.0078 0.0078 0.0078 0.0078 0.0077 
3324.456944 0.0077 0.0076 0.0074 0.0074 0.0074 0.0074 0.0073 0.0073 0.0072 
3333.136988 0.0072 0.0073 0.0073 0.0072 0.0072 0.0071 0.0071 0.0071 0.0070 
3341.817032 0.0069 0.0069 0.0068 0.0068 0.0068 0.0067 0.0066 0.0066 0.0066 
3350.497077 0.0066 0.0066 0.0065 0.0064 0.0064 0.0063 0.0063 0.0062 0.0061 
3359.177121 0.0061 0.0060 0.0059 0.0059 0.0059 0.0058 0.0058 0.0057 0.0056 
3367.857165 0.0055 0.0054 0.0054 0.0052 0.0051 0.0050 0.0050 0.0050 0.0049 
3376.537209 0.0048 0.0046 0.0046 0.0045 0.0046 0.0045 0.0043 0.0041 0.0041 
3385.217254 0.0042 0.0041 0.0040 0.0040 0.0040 0.0040 0.0040 0.0040 0.0040 
3393.897298 0.0039 0.0038 0.0038 0.0038 0.0039 0.0039 0.0038 0.0037 0.0038 
3402.577342 0.0037 0.0036 0.0035 0.0035 0.0035 0.0034 0.0035 0.0035 0.0035 
3411.257386 0.0035 0.0037 0.0036 0.0035 0.0035 0.0035 0.0034 0.0034 0.0035 
3419.937431 0.0036 0.0037 0.0035 0.0034 0.0034 0.0034 0.0034 0.0035 0.0037 
3428.617475 0.0038 0.0038 0.0039 0.0038 0.0037 0.0038 0.0039 0.0039 0.0039 
3437.297519 0.0039 0.0037 0.0035 0.0035 0.0035 0.0034 0.0034 0.0034 0.0035 
3445.977563 0.0035 0.0036 0.0037 0.0036 0.0035 0.0036 0.0036 0.0036 0.0036 
3454.657608 0.0037 0.0037 0.0037 0.0037 0.0037 0.0037 0.0037 0.0035 0.0034 
3463.337652 0.0034 0.0034 0.0035 0.0036 0.0036 0.0036 0.0035 0.0034 0.0034 
3472.017696 0.0035 0.0034 0.0033 0.0033 0.0033 0.0032 0.0032 0.0032 0.0032 
3480.697740 0.0032 0.0030 0.0031 0.0031 0.0031 0.0031 0.0030 0.0030 0.0030 
3489.377784 0.0029 0.0029 0.0030 0.0030 0.0030 0.0029 0.0029 0.0029 0.0028 
3498.057829 0.0028 0.0028 0.0028 0.0029 0.0029 0.0029 0.0029 0.0028 0.0027 
3506.737873 0.0027 0.0027 0.0026 0.0028 0.0029 0.0030 0.0031 0.0032 0.0032 
3515.417917 0.0032 0.0033 0.0033 0.0033 0.0034 0.0036 0.0037 0.0038 0.0042 
3524.097961 0.0044 0.0045 0.0044 0.0044 0.0047 0.0049 0.0051 0.0053 0.0055 
3532.778006 0.0057 0.0058 0.0060 0.0063 0.0066 0.0066 0.0066 0.0068 0.0069 
3541.458050 0.0071 0.0073 0.0075 0.0076 0.0079 0.0079 0.0080 0.0082 0.0082 
3550.138094 0.0084 0.0086 0.0087 0.0090 0.0093 0.0094 0.0095 0.0096 0.0098 
3558.818138 0.0098 0.0099 0.0101 0.0100 0.0096 0.0094 0.0092 0.0086 0.0082 
3567.498183 0.0082 0.0087 0.0089 0.0087 0.0084 0.0082 0.0080 0.0078 0.0077 
3576.178227 0.0076 0.0074 0.0073 0.0073 0.0074 0.0076 0.0075 0.0073 0.0075 
3584.858271 0.0077 0.0072 0.0065 0.0060 0.0062 0.0068 0.0069 0.0069 0.0066 
3593.538315 0.0066 0.0063 0.0063 0.0065 0.0065 0.0069 0.0071 0.0068 0.0069 
3602.218360 0.0071 0.0073 0.0073 0.0072 0.0069 0.0069 0.0069 0.0064 0.0065 
3610.898404 0.0063 0.0058 0.0056 0.0055 0.0054 0.0054 0.0048 0.0043 0.0040 
3619.578448 0.0040 0.0044 0.0043 0.0040 0.0038 0.0037 0.0035 0.0033 0.0027 
3628.258492 0.0018 0.0014 0.0027 0.0030 0.0028 0.0027 0.0029 0.0030 0.0029 
3636.938537 0.0028 0.0028 0.0027 0.0027 0.0027 0.0027 0.0028 0.0027 0.0026 
3645.618581 0.0024 0.0018 0.0017 0.0020 0.0021 0.0021 0.0025 0.0027 0.0025 
3654.298625 0.0024 0.0020 0.0021 0.0029 0.0031 0.0030 0.0029 0.0028 0.0027 
3662.978669 0.0027 0.0028 0.0027 0.0026 0.0025 0.0021 0.0020 0.0018 0.0017 
3671.658714 0.0025 0.0024 0.0022 0.0015 0.0010 0.0021 0.0026 0.0024 0.0026 
3680.338758 0.0028 0.0027 0.0026 0.0026 0.0026 0.0025 0.0024 0.0022 0.0023 
3689.018802 0.0029 0.0022 0.0020 0.0025 0.0025 0.0024 0.0024 0.0025 0.0026 
3697.698846 0.0027 0.0026 0.0025 0.0022 0.0022 0.0025 0.0024 0.0022 0.0022 
3706.378890 0.0023 0.0022 0.0019 0.0019 0.0023 0.0017 0.0019 0.0026 0.0022 
3715.058935 0.0022 0.0023 0.0021 0.0017 0.0018 0.0021 0.0019 0.0019 0.0024 
3723.738979 0.0023 0.0022 0.0023 0.0025 0.0025 0.0023 0.0022 0.0021 0.0018 
3732.419023 0.0020 0.0019 0.0015 0.0024 0.0028 0.0025 0.0025 0.0026 0.0024 
3741.099067 0.0025 0.0026 0.0021 0.0017 0.0031 0.0029 0.0025 0.0022 0.0017 
3749.779112 0.0021 0.0019 0.0014 0.0022 0.0026 0.0026 0.0024 0.0026 0.0029 
3758.459156 0.0026 0.0025 0.0028 0.0027 0.0027 0.0027 0.0027 0.0026 0.0030 
3767.139200 0.0031 0.0028 0.0025 0.0029 0.0032 0.0031 0.0032 0.0031 0.0030 
3775.819244 0.0029 0.0030 0.0030 0.0027 0.0029 0.0031 0.0029 0.0029 0.0027 
3784.499289 0.0027 0.0028 0.0029 0.0029 0.0029 0.0030 0.0030 0.0028 0.0028 
3793.179333 0.0028 0.0027 0.0024 0.0023 0.0029 0.0029 0.0025 0.0020 0.0017 
3801.859377 0.0027 0.0029 0.0027 0.0024 0.0022 0.0024 0.0031 0.0028 0.0025 
3810.539421 0.0024 0.0024 0.0022 0.0021 0.0019 0.0015 0.0022 0.0025 0.0021 
3819.219466 0.0018 0.0015 0.0021 0.0028 0.0022 0.0020 0.0020 0.0020 0.0022 
3827.899510 0.0023 0.0022 0.0021 0.0019 0.0020 0.0023 0.0020 0.0020 0.0024 
3836.579554 0.0019 0.0017 0.0023 0.0022 0.0023 0.0027 0.0024 0.0022 0.0027 
3845.259598 0.0026 0.0025 0.0025 0.0023 0.0023 0.0023 0.0019 0.0020 0.0020 
3853.939643 0.0022 0.0033 0.0028 0.0028 0.0030 0.0027 0.0026 0.0025 0.0026 
3862.619687 0.0028 0.0024 0.0022 0.0029 0.0031 0.0028 0.0024 0.0022 0.0028 
3871.299731 0.0030 0.0030 0.0028 0.0030 0.0032 0.0031 0.0030 0.0029 0.0025 
3879.979775 0.0026 0.0032 0.0030 0.0028 0.0028 0.0026 0.0030 0.0033 0.0030 
3888.659820 0.0029 0.0028 0.0028 0.0032 0.0034 0.0031 0.0030 0.0030 0.0030 
3897.339864 0.0028 0.0026 0.0031 0.0033 0.0027 0.0031 0.0031 0.0030 0.0033 
3906.019908 0.0032 0.0030 0.0029 0.0029 0.0028 0.0028 0.0029 0.0028 0.0028 
3914.699952 0.0028 0.0026 0.0026 0.0028 0.0027 0.0026 0.0030 0.0030 0.0026 
3923.379996 0.0024 0.0026 0.0029 0.0028 0.0026 0.0025 0.0026 0.0027 0.0027 
3932.060041 0.0028 0.0030 0.0029 0.0027 0.0028 0.0030 0.0030 0.0029 0.0029 
3940.740085 0.0029 0.0028 0.0031 0.0033 0.0031 0.0030 0.0030 0.0032 0.0033 
3949.420129 0.0033 0.0034 0.0033 0.0033 0.0035 0.0036 0.0035 0.0034 0.0035 
3958.100173 0.0035 0.0034 0.0034 0.0034 0.0036 0.0035 0.0034 0.0035 0.0035 
3966.780218 0.0035 0.0036 0.0037 0.0037 0.0037 0.0036 0.0036 0.0037 0.0038 
3975.460262 0.0038 0.0039 0.0039 0.0039 0.0039 0.0039 0.0040 0.0040 0.0040 
3984.140306 0.0041 0.0040 0.0041 0.0043 0.0042 0.0042 0.0042 0.0042 0.0043 
3992.820350 0.0044 0.0045 0.0045 0.0045 0.0044 0.0044 0.0045 0.0046 0.0046 
##END=
