##JCAMP-DX=5.01
##FILENAME=KAM-12.jdx
##XUNITS=1/CM
##YUNITS=ABSORBANCE
##FIRSTX=399.282035
##LASTX=4000.535945
##MAXX=4000.535945
##MINX=399.282035
##FIRSTY=0.0244
##LASTY=0.0102
##MAXY=0.8192
##MINY=0.0010
##NPOINTS=3735
##XFACTOR=1
##YFACTOR=1
##XYDATA=(X++(Y..Y))
399.282035 0.0244 0.0126 0.0043 0.0058 0.0061 0.0108 0.0119 0.0087 0.0115 0.0128 
408.926529 0.0095 0.0082 0.0066 0.0078 0.0074 0.0050 0.0053 0.0051 0.0054 0.0085 
418.571022 0.0058 0.0020 0.0089 0.0115 0.0103 0.0109 0.0096 0.0085 0.0078 0.0079 
428.215516 0.0101 0.0111 0.0109 0.0114 0.0110 0.0112 0.0103 0.0087 0.0076 0.0082 
437.860009 0.0077 0.0061 0.0067 0.0075 0.0085 0.0099 0.0105 0.0118 0.0114 0.0100 
447.504503 0.0105 0.0109 0.0109 0.0123 0.0123 0.0108 0.0107 0.0119 0.0120 0.0120 
457.148997 0.0118 0.0118 0.0129 0.0131 0.0129 0.0131 0.0119 0.0112 0.0112 0.0106 
466.793490 0.0091 0.0090 0.0100 0.0106 0.0104 0.0097 0.0094 0.0097 0.0101 0.0104 
476.437984 0.0104 0.0106 0.0106 0.0106 0.0106 0.0103 0.0103 0.0109 0.0120 0.0127 
486.082477 0.0131 0.0122 0.0106 0.0110 0.0113 0.0111 0.0122 0.0124 0.0122 0.0120 
495.726971 0.0113 0.0116 0.0121 0.0118 0.0129 0.0135 0.0129 0.0126 0.0129 0.0136 
505.371465 0.0142 0.0145 0.0144 0.0146 0.0150 0.0160 0.0167 0.0169 0.0165 0.0163 
515.015958 0.0163 0.0160 0.0159 0.0165 0.0163 0.0151 0.0149 0.0154 0.0156 0.0146 
524.660452 0.0137 0.0137 0.0144 0.0144 0.0136 0.0136 0.0142 0.0147 0.0142 0.0137 
534.304945 0.0135 0.0134 0.0134 0.0130 0.0135 0.0143 0.0142 0.0140 0.0140 0.0135 
543.949439 0.0130 0.0134 0.0138 0.0143 0.0142 0.0136 0.0139 0.0146 0.0150 0.0150 
553.593933 0.0150 0.0149 0.0149 0.0148 0.0142 0.0140 0.0138 0.0136 0.0136 0.0136 
563.238426 0.0133 0.0134 0.0137 0.0138 0.0137 0.0135 0.0134 0.0133 0.0134 0.0137 
572.882920 0.0136 0.0133 0.0133 0.0134 0.0131 0.0131 0.0130 0.0130 0.0130 0.0128 
582.527413 0.0128 0.0128 0.0129 0.0131 0.0128 0.0125 0.0124 0.0124 0.0124 0.0128 
592.171907 0.0131 0.0130 0.0128 0.0126 0.0127 0.0125 0.0124 0.0127 0.0128 0.0127 
601.816401 0.0124 0.0124 0.0123 0.0120 0.0119 0.0119 0.0120 0.0119 0.0119 0.0118 
611.460894 0.0116 0.0117 0.0117 0.0114 0.0113 0.0115 0.0117 0.0115 0.0110 0.0109 
621.105388 0.0108 0.0105 0.0102 0.0100 0.0099 0.0100 0.0096 0.0093 0.0092 0.0091 
630.749881 0.0092 0.0093 0.0097 0.0103 0.0106 0.0109 0.0109 0.0110 0.0113 0.0115 
640.394375 0.0114 0.0111 0.0110 0.0109 0.0109 0.0109 0.0107 0.0107 0.0108 0.0107 
650.038869 0.0010 0.0010 0.0010 0.0010 0.0010 0.0010 0.0010 0.0010 0.0010 0.0010 
659.683362 0.0010 0.0010 0.0010 0.0010 0.0010 0.0010 0.0010 0.0010 0.0010 0.0010 
669.327856 0.0010 0.0010 0.0010 0.0010 0.0010 0.0010 0.0010 0.0010 0.0010 0.0010 
678.972349 0.0010 0.0010 0.0010 0.0010 0.0010 0.0010 0.0010 0.0010 0.0010 0.0010 
688.616843 0.0010 0.0010 0.0010 0.0010 0.0010 0.0010 0.0010 0.0010 0.0010 0.0010 
698.261337 0.0010 0.0010 0.0010 0.0010 0.0010 0.0010 0.0010 0.0010 0.0010 0.0010 
707.905830 0.0010 0.0010 0.0010 0.0010 0.0010 0.0010 0.0010 0.0010 0.0010 0.0010 
717.550324 0.0010 0.0010 0.0010 0.0010 0.0010 0.0010 0.0010 0.0010 0.0010 0.0010 
727.194817 0.0010 0.0010 0.0010 0.0010 0.0010 0.0010 0.0010 0.0010 0.0010 0.0010 
736.839311 0.0010 0.0010 0.0010 0.0010 0.0010 0.0010 0.0010 0.0010 0.0010 0.0010 
746.483805 0.0010 0.0010 0.0010 0.0010 0.0010 0.0010 0.0010 0.0010 0.0010 0.0010 
756.128298 0.0010 0.0010 0.0010 0.0010 0.0010 0.0010 0.0010 0.0010 0.0010 0.0010 
765.772792 0.0010 0.0010 0.0010 0.0010 0.0010 0.0010 0.0010 0.0010 0.0010 0.0010 
775.417285 0.0010 0.0010 0.0010 0.0010 0.0010 0.0010 0.0010 0.0010 0.0010 0.0010 
785.061779 0.0010 0.0010 0.0010 0.0010 0.0010 0.0010 0.0010 0.0010 0.0010 0.0010 
794.706273 0.0010 0.0010 0.0010 0.0010 0.0010 0.0010 0.0010 0.0010 0.0010 0.0010 
804.350766 0.0010 0.0010 0.0010 0.0010 0.0010 0.0010 0.0010 0.0010 0.0010 0.0010 
813.995260 0.0010 0.0010 0.0010 0.0010 0.0010 0.0010 0.0010 0.0010 0.0010 0.0010 
823.639753 0.0010 0.0010 0.0010 0.0010 0.0010 0.0010 0.0010 0.0010 0.0010 0.0010 
833.284247 0.0010 0.0010 0.0010 0.0010 0.0010 0.0010 0.0010 0.0010 0.0010 0.0010 
842.928741 0.0010 0.0010 0.0010 0.0010 0.0010 0.0010 0.0010 0.0010 0.0010 0.0010 
852.573234 0.0010 0.0010 0.0010 0.0010 0.0010 0.0010 0.0010 0.0010 0.0084 0.0084 
862.217728 0.0085 0.0086 0.0086 0.0087 0.0088 0.0086 0.0083 0.0080 0.0078 0.0076 
871.862221 0.0074 0.0075 0.0078 0.0083 0.0087 0.0092 0.0096 0.0100 0.0101 0.0102 
881.506715 0.0102 0.0102 0.0101 0.0101 0.0102 0.0104 0.0108 0.0114 0.0120 0.0126 
891.151209 0.0134 0.0143 0.0154 0.0166 0.0179 0.0192 0.0208 0.0225 0.0238 0.0242 
900.795702 0.0237 0.0225 0.0208 0.0189 0.0172 0.0157 0.0144 0.0134 0.0126 0.0121 
910.440196 0.0117 0.0115 0.0114 0.0114 0.0114 0.0115 0.0116 0.0118 0.0119 0.0122 
920.084689 0.0126 0.0131 0.0137 0.0144 0.0153 0.0164 0.0177 0.0188 0.0199 0.0208 
929.729183 0.0216 0.0220 0.0223 0.0225 0.0224 0.0224 0.0224 0.0226 0.0229 0.0233 
939.373677 0.0238 0.0246 0.0255 0.0266 0.0279 0.0293 0.0308 0.0325 0.0345 0.0365 
949.018170 0.0387 0.0411 0.0433 0.0454 0.0472 0.0488 0.0504 0.0517 0.0527 0.0537 
958.662664 0.0548 0.0560 0.0569 0.0570 0.0560 0.0538 0.0510 0.0479 0.0450 0.0425 
968.307157 0.0404 0.0387 0.0374 0.0369 0.0369 0.0369 0.0368 0.0370 0.0377 0.0390 
977.951651 0.0409 0.0430 0.0450 0.0464 0.0468 0.0464 0.0454 0.0442 0.0434 0.0429 
987.596145 0.0429 0.0433 0.0439 0.0445 0.0447 0.0445 0.0437 0.0428 0.0417 0.0406 
997.240638 0.0398 0.0393 0.0390 0.0390 0.0392 0.0399 0.0410 0.0425 0.0444 0.0467 
1006.885132 0.0491 0.0513 0.0528 0.0532 0.0530 0.0523 0.0511 0.0498 0.0484 
1015.565176 0.0472 0.0467 0.0468 0.0475 0.0486 0.0502 0.0519 0.0538 0.0561 
1024.245220 0.0588 0.0618 0.0651 0.0681 0.0702 0.0707 0.0699 0.0683 0.0672 
1032.925265 0.0674 0.0694 0.0731 0.0783 0.0841 0.0900 0.0950 0.0983 0.0991 
1041.605309 0.0976 0.0949 0.0915 0.0882 0.0852 0.0825 0.0805 0.0791 0.0783 
1050.285353 0.0780 0.0780 0.0782 0.0783 0.0782 0.0780 0.0785 0.0797 0.0816 
1058.965397 0.0839 0.0861 0.0881 0.0900 0.0922 0.0947 0.0980 0.1019 0.1064 
1067.645442 0.1109 0.1150 0.1182 0.1201 0.1204 0.1194 0.1175 0.1150 0.1123 
1076.325486 0.1095 0.1068 0.1044 0.1027 0.1016 0.1010 0.1011 0.1020 0.1040 
1085.005530 0.1071 0.1115 0.1171 0.1240 0.1323 0.1423 0.1536 0.1664 0.1804 
1093.685574 0.1955 0.2111 0.2269 0.2424 0.2571 0.2704 0.2821 0.2920 0.3005 
1102.365618 0.3082 0.3156 0.3226 0.3288 0.3335 0.3360 0.3362 0.3349 0.3330 
1111.045663 0.3319 0.3333 0.3388 0.3489 0.3624 0.3767 0.3893 0.3984 0.4034 
1119.725707 0.4049 0.4036 0.3999 0.3942 0.3868 0.3777 0.3668 0.3539 0.3391 
1128.405751 0.3228 0.3052 0.2869 0.2686 0.2510 0.2346 0.2195 0.2053 0.1919 
1137.085795 0.1789 0.1663 0.1547 0.1443 0.1354 0.1279 0.1218 0.1167 0.1127 
1145.765840 0.1094 0.1064 0.1036 0.1010 0.0987 0.0966 0.0949 0.0932 0.0914 
1154.445884 0.0895 0.0874 0.0851 0.0828 0.0806 0.0781 0.0754 0.0723 0.0690 
1163.125928 0.0654 0.0616 0.0577 0.0540 0.0506 0.0476 0.0450 0.0430 0.0413 
1171.805972 0.0399 0.0385 0.0372 0.0356 0.0339 0.0322 0.0307 0.0293 0.0283 
1180.486017 0.0274 0.0268 0.0262 0.0257 0.0253 0.0249 0.0246 0.0242 0.0239 
1189.166061 0.0236 0.0234 0.0232 0.0230 0.0229 0.0228 0.0227 0.0226 0.0226 
1197.846105 0.0225 0.0225 0.0224 0.0223 0.0222 0.0221 0.0220 0.0219 0.0218 
1206.526149 0.0218 0.0217 0.0216 0.0216 0.0216 0.0216 0.0217 0.0218 0.0218 
1215.206194 0.0219 0.0221 0.0224 0.0230 0.0237 0.0246 0.0255 0.0265 0.0277 
1223.886238 0.0292 0.0306 0.0323 0.0342 0.0364 0.0389 0.0416 0.0444 0.0469 
1232.566282 0.0484 0.0490 0.0484 0.0467 0.0442 0.0414 0.0386 0.0362 0.0342 
1241.246326 0.0328 0.0319 0.0313 0.0310 0.0310 0.0311 0.0311 0.0311 0.0312 
1249.926371 0.0313 0.0316 0.0319 0.0322 0.0325 0.0329 0.0331 0.0331 0.0330 
1258.606415 0.0329 0.0328 0.0328 0.0330 0.0334 0.0339 0.0346 0.0353 0.0360 
1267.286459 0.0363 0.0362 0.0358 0.0349 0.0337 0.0325 0.0313 0.0300 0.0289 
1275.966503 0.0281 0.0273 0.0267 0.0264 0.0262 0.0261 0.0262 0.0263 0.0267 
1284.646548 0.0271 0.0275 0.0280 0.0286 0.0293 0.0301 0.0309 0.0318 0.0328 
1293.326592 0.0340 0.0353 0.0366 0.0382 0.0399 0.0414 0.0425 0.0433 0.0438 
1302.006636 0.0441 0.0444 0.0444 0.0441 0.0433 0.0423 0.0407 0.0386 0.0364 
1310.686680 0.0343 0.0326 0.0313 0.0304 0.0297 0.0295 0.0295 0.0298 0.0299 
1319.366724 0.0301 0.0298 0.0292 0.0287 0.0283 0.0280 0.0277 0.0276 0.0276 
1328.046769 0.0278 0.0281 0.0288 0.0298 0.0313 0.0333 0.0357 0.0382 0.0402 
1336.726813 0.0414 0.0412 0.0403 0.0394 0.0386 0.0377 0.0370 0.0366 0.0365 
1345.406857 0.0369 0.0378 0.0393 0.0411 0.0434 0.0460 0.0488 0.0518 0.0551 
1354.086901 0.0594 0.0652 0.0714 0.0759 0.0780 0.0781 0.0784 0.0804 0.0836 
1362.766946 0.0866 0.0890 0.0899 0.0909 0.0922 0.0941 0.0968 0.1002 0.1038 
1371.446990 0.1076 0.1109 0.1144 0.1187 0.1247 0.1323 0.1407 0.1470 0.1457 
1380.127034 0.1358 0.1219 0.1071 0.0937 0.0826 0.0740 0.0675 0.0624 0.0574 
1388.807078 0.0542 0.0519 0.0500 0.0483 0.0471 0.0461 0.0451 0.0440 0.0430 
1397.487123 0.0422 0.0413 0.0405 0.0398 0.0393 0.0387 0.0382 0.0378 0.0379 
1406.167167 0.0381 0.0382 0.0386 0.0392 0.0399 0.0403 0.0402 0.0397 0.0388 
1414.847211 0.0379 0.0369 0.0363 0.0356 0.0349 0.0348 0.0344 0.0340 0.0341 
1423.527255 0.0344 0.0355 0.0361 0.0374 0.0393 0.0421 0.0454 0.0524 0.0598 
1432.207300 0.0672 0.0724 0.0721 0.0677 0.0629 0.0562 0.0534 0.0520 0.0512 
1440.887344 0.0510 0.0519 0.0534 0.0560 0.0595 0.0643 0.0693 0.0763 0.0866 
1449.567388 0.0943 0.1005 0.1056 0.1124 0.1216 0.1336 0.1477 0.1603 0.1681 
1458.247432 0.1687 0.1645 0.1634 0.1643 0.1687 0.1758 0.1858 0.2012 0.2106 
1466.927477 0.2013 0.1792 0.1542 0.1344 0.1201 0.1078 0.0932 0.0843 0.0779 
1475.607521 0.0742 0.0688 0.0660 0.0647 0.0641 0.0637 0.0632 0.0623 0.0617 
1484.287565 0.0606 0.0585 0.0547 0.0489 0.0424 0.0382 0.0329 0.0293 0.0270 
1492.967609 0.0254 0.0237 0.0224 0.0210 0.0203 0.0191 0.0185 0.0178 0.0010 
1501.647654 0.0010 0.0010 0.0010 0.0010 0.0010 0.0010 0.0010 0.0010 0.0010 
1510.327698 0.0010 0.0010 0.0010 0.0010 0.0010 0.0010 0.0010 0.0010 0.0010 
1519.007742 0.0010 0.0010 0.0010 0.0010 0.0010 0.0010 0.0010 0.0010 0.0010 
1527.687786 0.0010 0.0010 0.0010 0.0010 0.0010 0.0010 0.0010 0.0010 0.0010 
1536.367830 0.0010 0.0010 0.0010 0.0010 0.0010 0.0010 0.0010 0.0010 0.0010 
1545.047875 0.0010 0.0010 0.0010 0.0010 0.0010 0.0010 0.0010 0.0010 0.0010 
1553.727919 0.0010 0.0010 0.0010 0.0010 0.0010 0.0010 0.0010 0.0010 0.0010 
1562.407963 0.0010 0.0010 0.0010 0.0010 0.0010 0.0010 0.0010 0.0010 0.0010 
1571.088007 0.0010 0.0010 0.0010 0.0010 0.0010 0.0010 0.0010 0.0010 0.0010 
1579.768052 0.0010 0.0010 0.0010 0.0010 0.0010 0.0010 0.0010 0.0010 0.0010 
1588.448096 0.0010 0.0010 0.0010 0.0010 0.0010 0.0010 0.0010 0.0010 0.0010 
1597.128140 0.0010 0.0010 0.0010 0.0010 0.0010 0.0010 0.0010 0.0010 0.0010 
1605.808184 0.0010 0.0010 0.0010 0.0010 0.0010 0.0010 0.0010 0.0010 0.0010 
1614.488229 0.0010 0.0010 0.0010 0.0010 0.0010 0.0010 0.0010 0.0010 0.0010 
1623.168273 0.0010 0.0010 0.0010 0.0010 0.0010 0.0010 0.0010 0.0010 0.0010 
1631.848317 0.0010 0.0010 0.0010 0.0010 0.0010 0.0010 0.0010 0.0010 0.0010 
1640.528361 0.0010 0.0010 0.0010 0.0010 0.0010 0.0010 0.0010 0.0010 0.0010 
1649.208406 0.0010 0.0106 0.0099 0.0082 0.0067 0.0097 0.0108 0.0105 0.0104 
1657.888450 0.0104 0.0103 0.0102 0.0101 0.0096 0.0096 0.0102 0.0100 0.0100 
1666.568494 0.0100 0.0097 0.0090 0.0095 0.0096 0.0096 0.0100 0.0097 0.0090 
1675.248538 0.0093 0.0105 0.0101 0.0100 0.0097 0.0097 0.0100 0.0097 0.0089 
1683.928583 0.0083 0.0099 0.0106 0.0102 0.0103 0.0106 0.0108 0.0110 0.0110 
1692.608627 0.0109 0.0107 0.0100 0.0095 0.0108 0.0107 0.0103 0.0092 0.0096 
1701.288671 0.0117 0.0112 0.0110 0.0111 0.0115 0.0115 0.0124 0.0124 0.0124 
1709.968715 0.0127 0.0131 0.0129 0.0128 0.0126 0.0130 0.0133 0.0124 0.0118 
1718.648760 0.0131 0.0133 0.0131 0.0131 0.0130 0.0132 0.0135 0.0136 0.0139 
1727.328804 0.0142 0.0146 0.0147 0.0156 0.0157 0.0151 0.0143 0.0139 0.0144 
1736.008848 0.0139 0.0135 0.0131 0.0122 0.0121 0.0121 0.0114 0.0109 0.0111 
1744.688892 0.0107 0.0101 0.0096 0.0094 0.0092 0.0093 0.0085 0.0089 0.0092 
1753.368936 0.0089 0.0088 0.0085 0.0082 0.0087 0.0087 0.0085 0.0081 0.0076 
1762.048981 0.0084 0.0085 0.0081 0.0080 0.0081 0.0079 0.0078 0.0083 0.0079 
1770.729025 0.0074 0.0071 0.0077 0.0083 0.0079 0.0078 0.0080 0.0078 0.0077 
1779.409069 0.0076 0.0075 0.0079 0.0079 0.0077 0.0075 0.0078 0.0079 0.0077 
1788.089113 0.0077 0.0077 0.0075 0.0077 0.0073 0.0079 0.0082 0.0077 0.0079 
1796.769158 0.0080 0.0079 0.0075 0.0078 0.0079 0.0079 0.0082 0.0081 0.0079 
1805.449202 0.0079 0.0078 0.0078 0.0079 0.0075 0.0074 0.0078 0.0079 0.0078 
1814.129246 0.0076 0.0076 0.0076 0.0076 0.0077 0.0076 0.0076 0.0075 0.0075 
1822.809290 0.0076 0.0074 0.0072 0.0079 0.0078 0.0075 0.0071 0.0071 0.0080 
1831.489335 0.0078 0.0076 0.0077 0.0077 0.0076 0.0076 0.0076 0.0077 0.0077 
1840.169379 0.0077 0.0076 0.0077 0.0073 0.0073 0.0082 0.0078 0.0075 0.0078 
1848.849423 0.0079 0.0078 0.0078 0.0078 0.0078 0.0077 0.0078 0.0078 0.0078 
1857.529467 0.0077 0.0077 0.0077 0.0076 0.0076 0.0076 0.0076 0.0075 0.0074 
1866.209512 0.0074 0.0074 0.0073 0.0074 0.0077 0.0075 0.0074 0.0074 0.0073 
1874.889556 0.0073 0.0073 0.0073 0.0073 0.0073 0.0073 0.0072 0.0073 0.0072 
1883.569600 0.0072 0.0072 0.0073 0.0073 0.0073 0.0071 0.0072 0.0077 0.0075 
1892.249644 0.0074 0.0075 0.0074 0.0075 0.0077 0.0076 0.0077 0.0077 0.0078 
1900.929689 0.0078 0.0079 0.0079 0.0080 0.0080 0.0081 0.0080 0.0081 0.0081 
1909.609733 0.0081 0.0083 0.0083 0.0083 0.0084 0.0084 0.0084 0.0084 0.0082 
1918.289777 0.0087 0.0088 0.0086 0.0086 0.0086 0.0089 0.0090 0.0089 0.0089 
1926.969821 0.0090 0.0091 0.0092 0.0092 0.0092 0.0092 0.0093 0.0093 0.0093 
1935.649866 0.0094 0.0094 0.0094 0.0094 0.0095 0.0095 0.0094 0.0095 0.0098 
1944.329910 0.0096 0.0096 0.0096 0.0097 0.0096 0.0097 0.0096 0.0096 0.0096 
1953.009954 0.0096 0.0095 0.0095 0.0095 0.0095 0.0095 0.0095 0.0095 0.0094 
1961.689998 0.0094 0.0094 0.0094 0.0093 0.0093 0.0093 0.0094 0.0094 0.0093 
1970.370042 0.0093 0.0092 0.0092 0.0091 0.0091 0.0090 0.0090 0.0090 0.0089 
1979.050087 0.0089 0.0088 0.0087 0.0087 0.0087 0.0086 0.0085 0.0085 0.0084 
1987.730131 0.0084 0.0085 0.0084 0.0082 0.0083 0.0085 0.0084 0.0084 0.0083 
1996.410175 0.0083 0.0083 0.0083 0.0082 0.0082 0.0082 0.0082 0.0082 0.0083 
2005.090219 0.0082 0.0082 0.0083 0.0083 0.0083 0.0083 0.0083 0.0084 0.0084 
2013.770264 0.0085 0.0085 0.0085 0.0086 0.0087 0.0087 0.0087 0.0087 0.0088 
2022.450308 0.0090 0.0090 0.0090 0.0090 0.0091 0.0092 0.0092 0.0093 0.0094 
2031.130352 0.0095 0.0096 0.0096 0.0097 0.0097 0.0097 0.0097 0.0097 0.0097 
2039.810396 0.0097 0.0097 0.0098 0.0098 0.0097 0.0098 0.0098 0.0098 0.0099 
2048.490441 0.0099 0.0099 0.0099 0.0099 0.0100 0.0100 0.0100 0.0100 0.0100 
2057.170485 0.0101 0.0102 0.0102 0.0102 0.0102 0.0103 0.0103 0.0103 0.0104 
2065.850529 0.0105 0.0105 0.0105 0.0105 0.0106 0.0106 0.0107 0.0107 0.0109 
2074.530573 0.0109 0.0110 0.0111 0.0112 0.0112 0.0112 0.0112 0.0112 0.0111 
2083.210618 0.0112 0.0111 0.0111 0.0111 0.0110 0.0110 0.0109 0.0109 0.0110 
2091.890662 0.0109 0.0109 0.0109 0.0108 0.0108 0.0108 0.0107 0.0107 0.0106 
2100.570706 0.0106 0.0105 0.0104 0.0103 0.0103 0.0102 0.0101 0.0099 0.0099 
2109.250750 0.0098 0.0097 0.0097 0.0096 0.0096 0.0096 0.0095 0.0095 0.0094 
2117.930795 0.0094 0.0093 0.0093 0.0092 0.0091 0.0091 0.0091 0.0090 0.0089 
2126.610839 0.0089 0.0089 0.0088 0.0088 0.0088 0.0087 0.0087 0.0087 0.0086 
2135.290883 0.0086 0.0086 0.0085 0.0084 0.0084 0.0084 0.0084 0.0084 0.0083 
2143.970927 0.0083 0.0083 0.0082 0.0082 0.0081 0.0082 0.0082 0.0082 0.0082 
2152.650972 0.0082 0.0082 0.0083 0.0083 0.0083 0.0083 0.0084 0.0084 0.0085 
2161.331016 0.0085 0.0086 0.0086 0.0086 0.0086 0.0087 0.0087 0.0087 0.0088 
2170.011060 0.0088 0.0088 0.0088 0.0088 0.0088 0.0088 0.0088 0.0088 0.0087 
2178.691104 0.0087 0.0087 0.0087 0.0087 0.0087 0.0087 0.0087 0.0087 0.0087 
2187.371148 0.0087 0.0087 0.0088 0.0088 0.0088 0.0088 0.0088 0.0088 0.0087 
2196.051193 0.0088 0.0088 0.0088 0.0089 0.0088 0.0087 0.0087 0.0087 0.0087 
2204.731237 0.0087 0.0087 0.0087 0.0086 0.0086 0.0086 0.0086 0.0086 0.0086 
2213.411281 0.0086 0.0086 0.0085 0.0085 0.0085 0.0085 0.0085 0.0085 0.0084 
2222.091325 0.0084 0.0084 0.0084 0.0084 0.0084 0.0084 0.0084 0.0083 0.0083 
2230.771370 0.0083 0.0082 0.0082 0.0083 0.0082 0.0082 0.0082 0.0082 0.0082 
2239.451414 0.0081 0.0081 0.0082 0.0082 0.0082 0.0081 0.0082 0.0082 0.0082 
2248.131458 0.0082 0.0082 0.0082 0.0082 0.0082 0.0083 0.0083 0.0083 0.0083 
2256.811502 0.0083 0.0083 0.0083 0.0083 0.0083 0.0082 0.0083 0.0083 0.0083 
2265.491547 0.0083 0.0083 0.0083 0.0083 0.0082 0.0082 0.0083 0.0083 0.0083 
2274.171591 0.0083 0.0083 0.0083 0.0083 0.0083 0.0083 0.0082 0.0082 0.0082 
2282.851635 0.0081 0.0081 0.0081 0.0082 0.0082 0.0082 0.0081 0.0082 0.0081 
2291.531679 0.0082 0.0082 0.0082 0.0083 0.0082 0.0083 0.0083 0.0084 0.0084 
2300.211724 0.0083 0.0084 0.0083 0.0085 0.0084 0.0087 0.0084 0.0087 0.0086 
2308.891768 0.0087 0.0086 0.0086 0.0087 0.0086 0.0088 0.0085 0.0087 0.0085 
2317.571812 0.0088 0.0085 0.0087 0.0084 0.0087 0.0083 0.0085 0.0084 0.0086 
2326.251856 0.0084 0.0084 0.0083 0.0084 0.0083 0.0083 0.0082 0.0083 0.0082 
2334.931901 0.0082 0.0080 0.0081 0.0080 0.0079 0.0079 0.0082 0.0080 0.0079 
2343.611945 0.0078 0.0078 0.0080 0.0081 0.0081 0.0081 0.0079 0.0078 0.0076 
2352.291989 0.0074 0.0072 0.0072 0.0071 0.0071 0.0071 0.0073 0.0070 0.0069 
2360.972033 0.0069 0.0071 0.0072 0.0074 0.0074 0.0075 0.0075 0.0075 0.0075 
2369.652078 0.0077 0.0077 0.0079 0.0080 0.0081 0.0082 0.0083 0.0085 0.0085 
2378.332122 0.0086 0.0087 0.0087 0.0087 0.0088 0.0088 0.0088 0.0088 0.0089 
2387.012166 0.0089 0.0089 0.0089 0.0090 0.0090 0.0090 0.0091 0.0091 0.0092 
2395.692210 0.0092 0.0093 0.0093 0.0094 0.0094 0.0094 0.0094 0.0095 0.0094 
2404.372254 0.0094 0.0094 0.0094 0.0094 0.0094 0.0094 0.0093 0.0093 0.0094 
2413.052299 0.0094 0.0094 0.0094 0.0094 0.0094 0.0094 0.0094 0.0094 0.0094 
2421.732343 0.0093 0.0093 0.0092 0.0092 0.0092 0.0093 0.0093 0.0093 0.0093 
2430.412387 0.0092 0.0092 0.0092 0.0092 0.0092 0.0092 0.0092 0.0092 0.0092 
2439.092431 0.0091 0.0091 0.0091 0.0091 0.0090 0.0091 0.0091 0.0090 0.0090 
2447.772476 0.0089 0.0089 0.0089 0.0089 0.0088 0.0088 0.0088 0.0088 0.0088 
2456.452520 0.0088 0.0088 0.0087 0.0086 0.0087 0.0087 0.0087 0.0087 0.0086 
2465.132564 0.0086 0.0086 0.0085 0.0085 0.0085 0.0085 0.0085 0.0084 0.0084 
2473.812608 0.0085 0.0084 0.0084 0.0084 0.0084 0.0084 0.0084 0.0084 0.0084 
2482.492653 0.0085 0.0084 0.0084 0.0084 0.0084 0.0084 0.0085 0.0085 0.0085 
2491.172697 0.0085 0.0084 0.0084 0.0084 0.0084 0.0084 0.0084 0.0084 0.0084 
2499.852741 0.0084 0.0085 0.0085 0.0085 0.0085 0.0085 0.0085 0.0085 0.0085 
2508.532785 0.0085 0.0085 0.0086 0.0086 0.0086 0.0086 0.0086 0.0087 0.0087 
2517.212830 0.0087 0.0088 0.0088 0.0087 0.0088 0.0088 0.0088 0.0088 0.0088 
2525.892874 0.0088 0.0088 0.0088 0.0089 0.0088 0.0089 0.0090 0.0090 0.0089 
2534.572918 0.0089 0.0090 0.0091 0.0092 0.0092 0.0093 0.0093 0.0094 0.0094 
2543.252962 0.0094 0.0094 0.0094 0.0095 0.0096 0.0096 0.0096 0.0097 0.0097 
2551.933007 0.0098 0.0099 0.0100 0.0101 0.0101 0.0102 0.0103 0.0103 0.0103 
2560.613051 0.0104 0.0104 0.0105 0.0106 0.0106 0.0107 0.0109 0.0109 0.0111 
2569.293095 0.0112 0.0113 0.0115 0.0117 0.0119 0.0121 0.0123 0.0125 0.0127 
2577.973139 0.0129 0.0132 0.0134 0.0135 0.0136 0.0138 0.0139 0.0140 0.0141 
2586.653184 0.0142 0.0142 0.0143 0.0143 0.0144 0.0144 0.0144 0.0144 0.0143 
2595.333228 0.0142 0.0141 0.0142 0.0142 0.0142 0.0141 0.0140 0.0139 0.0139 
2604.013272 0.0139 0.0139 0.0139 0.0139 0.0139 0.0139 0.0139 0.0139 0.0139 
2612.693316 0.0140 0.0141 0.0142 0.0143 0.0143 0.0144 0.0144 0.0144 0.0145 
2621.373360 0.0145 0.0146 0.0146 0.0146 0.0146 0.0146 0.0146 0.0147 0.0147 
2630.053405 0.0147 0.0147 0.0147 0.0147 0.0148 0.0148 0.0148 0.0148 0.0148 
2638.733449 0.0148 0.0149 0.0150 0.0150 0.0151 0.0151 0.0151 0.0152 0.0153 
2647.413493 0.0154 0.0156 0.0157 0.0159 0.0161 0.0162 0.0164 0.0166 0.0167 
2656.093537 0.0169 0.0170 0.0171 0.0172 0.0173 0.0173 0.0174 0.0175 0.0176 
2664.773582 0.0177 0.0178 0.0179 0.0179 0.0180 0.0181 0.0182 0.0184 0.0186 
2673.453626 0.0187 0.0190 0.0192 0.0195 0.0199 0.0202 0.0206 0.0210 0.0213 
2682.133670 0.0217 0.0220 0.0224 0.0227 0.0230 0.0234 0.0237 0.0240 0.0244 
2690.813714 0.0248 0.0252 0.0256 0.0259 0.0262 0.0266 0.0270 0.0274 0.0278 
2699.493759 0.0281 0.0284 0.0286 0.0288 0.0289 0.0288 0.0288 0.0290 0.0292 
2708.173803 0.0295 0.0298 0.0301 0.0305 0.0309 0.0312 0.0314 0.0316 0.0318 
2716.853847 0.0320 0.0321 0.0323 0.0325 0.0327 0.0330 0.0335 0.0340 0.0345 
2725.533891 0.0350 0.0356 0.0363 0.0371 0.0378 0.0384 0.0389 0.0394 0.0397 
2734.213936 0.0398 0.0396 0.0395 0.0392 0.0389 0.0386 0.0382 0.0377 0.0372 
2742.893980 0.0367 0.0362 0.0358 0.0353 0.0350 0.0347 0.0344 0.0343 0.0342 
2751.574024 0.0340 0.0339 0.0338 0.0336 0.0336 0.0336 0.0337 0.0338 0.0339 
2760.254068 0.0341 0.0344 0.0347 0.0350 0.0354 0.0359 0.0363 0.0370 0.0377 
2768.934113 0.0384 0.0391 0.0398 0.0406 0.0414 0.0424 0.0433 0.0444 0.0457 
2777.614157 0.0471 0.0485 0.0502 0.0521 0.0543 0.0566 0.0590 0.0619 0.0648 
2786.294201 0.0681 0.0714 0.0748 0.0783 0.0819 0.0854 0.0886 0.0916 0.0942 
2794.974245 0.0961 0.0974 0.0978 0.0973 0.0959 0.0939 0.0912 0.0884 0.0853 
2803.654290 0.0823 0.0794 0.0768 0.0746 0.0727 0.0713 0.0703 0.0696 0.0693 
2812.334334 0.0691 0.0692 0.0696 0.0702 0.0711 0.0721 0.0733 0.0749 0.0768 
2821.014378 0.0791 0.0816 0.0844 0.0875 0.0911 0.0949 0.0990 0.1034 0.1081 
2829.694422 0.1131 0.1183 0.1238 0.1298 0.1364 0.1438 0.1522 0.1616 0.1719 
2838.374466 0.1836 0.1964 0.2107 0.2257 0.2415 0.2572 0.2728 0.2876 0.3020 
2847.054511 0.3158 0.3301 0.3449 0.3607 0.3768 0.3935 0.4101 0.4267 0.4425 
2855.734555 0.4580 0.4722 0.4863 0.4996 0.5135 0.5272 0.5411 0.5532 0.5636 
2864.414599 0.5707 0.5749 0.5752 0.5734 0.5694 0.5669 0.5665 0.5704 0.5765 
2873.094643 0.5823 0.5807 0.5674 0.5402 0.5044 0.4648 0.4271 0.3930 0.3639 
2881.774688 0.3387 0.3175 0.2997 0.2852 0.2733 0.2641 0.2567 0.2514 0.2475 
2890.454732 0.2454 0.2444 0.2448 0.2463 0.2487 0.2517 0.2557 0.2600 0.2650 
2899.134776 0.2703 0.2760 0.2815 0.2869 0.2920 0.2976 0.3035 0.3103 0.3179 
2907.814820 0.3264 0.3353 0.3446 0.3533 0.3614 0.3679 0.3734 0.3779 0.3819 
2916.494865 0.3856 0.3903 0.3962 0.4044 0.4149 0.4284 0.4444 0.4635 0.4847 
2925.174909 0.5084 0.5331 0.5591 0.5844 0.6094 0.6331 0.6561 0.6749 0.6896 
2933.854953 0.6969 0.6965 0.6862 0.6686 0.6445 0.6189 0.5928 0.5682 0.5450 
2942.534997 0.5248 0.5071 0.4936 0.4833 0.4772 0.4753 0.4784 0.4857 0.4987 
2951.215042 0.5166 0.5409 0.5717 0.6091 0.6499 0.6928 0.7334 0.7700 0.7970 
2959.895086 0.8144 0.8192 0.8130 0.7961 0.7715 0.7375 0.6974 0.6513 0.6033 
2968.575130 0.5538 0.5057 0.4591 0.4157 0.3756 0.3394 0.3068 0.2782 0.2527 
2977.255174 0.2301 0.2099 0.1923 0.1768 0.1631 0.1510 0.1404 0.1307 0.1220 
2985.935219 0.1142 0.1072 0.1008 0.0951 0.0899 0.0853 0.0809 0.0770 0.0735 
2994.615263 0.0705 0.0675 0.0648 0.0623 0.0600 0.0580 0.0560 0.0542 0.0525 
3003.295307 0.0510 0.0495 0.0481 0.0468 0.0455 0.0443 0.0431 0.0421 0.0410 
3011.975351 0.0400 0.0391 0.0383 0.0375 0.0367 0.0359 0.0352 0.0345 0.0338 
3020.655396 0.0332 0.0327 0.0322 0.0315 0.0309 0.0304 0.0299 0.0294 0.0289 
3029.335440 0.0284 0.0279 0.0276 0.0271 0.0266 0.0262 0.0258 0.0254 0.0252 
3038.015484 0.0249 0.0244 0.0240 0.0237 0.0234 0.0230 0.0227 0.0224 0.0222 
3046.695528 0.0219 0.0216 0.0214 0.0211 0.0208 0.0205 0.0204 0.0202 0.0200 
3055.375572 0.0198 0.0195 0.0193 0.0192 0.0190 0.0189 0.0188 0.0186 0.0183 
3064.055617 0.0182 0.0181 0.0178 0.0177 0.0176 0.0175 0.0174 0.0172 0.0171 
3072.735661 0.0170 0.0170 0.0169 0.0168 0.0166 0.0166 0.0165 0.0164 0.0164 
3081.415705 0.0163 0.0162 0.0161 0.0161 0.0160 0.0159 0.0158 0.0158 0.0159 
3090.095749 0.0158 0.0157 0.0157 0.0158 0.0158 0.0157 0.0157 0.0157 0.0157 
3098.775794 0.0156 0.0156 0.0156 0.0157 0.0156 0.0156 0.0157 0.0157 0.0156 
3107.455838 0.0155 0.0154 0.0154 0.0155 0.0155 0.0156 0.0156 0.0155 0.0155 
3116.135882 0.0156 0.0156 0.0156 0.0156 0.0156 0.0157 0.0158 0.0159 0.0158 
3124.815926 0.0158 0.0159 0.0159 0.0159 0.0159 0.0159 0.0159 0.0159 0.0159 
3133.495971 0.0161 0.0161 0.0161 0.0162 0.0162 0.0162 0.0162 0.0162 0.0163 
3142.176015 0.0164 0.0165 0.0165 0.0165 0.0165 0.0166 0.0166 0.0167 0.0168 
3150.856059 0.0166 0.0165 0.0166 0.0168 0.0169 0.0169 0.0170 0.0172 0.0173 
3159.536103 0.0173 0.0173 0.0172 0.0173 0.0175 0.0175 0.0175 0.0177 0.0178 
3168.216148 0.0178 0.0179 0.0179 0.0181 0.0182 0.0183 0.0184 0.0185 0.0186 
3176.896192 0.0186 0.0187 0.0189 0.0189 0.0190 0.0192 0.0193 0.0194 0.0195 
3185.576236 0.0196 0.0197 0.0197 0.0198 0.0198 0.0199 0.0201 0.0203 0.0204 
3194.256280 0.0204 0.0204 0.0206 0.0207 0.0208 0.0208 0.0209 0.0211 0.0212 
3202.936325 0.0212 0.0212 0.0213 0.0214 0.0215 0.0216 0.0216 0.0217 0.0218 
3211.616369 0.0218 0.0218 0.0219 0.0221 0.0220 0.0221 0.0222 0.0222 0.0223 
3220.296413 0.0223 0.0223 0.0225 0.0227 0.0228 0.0228 0.0228 0.0230 0.0231 
3228.976457 0.0231 0.0233 0.0234 0.0234 0.0234 0.0235 0.0237 0.0239 0.0242 
3237.656502 0.0243 0.0243 0.0244 0.0245 0.0248 0.0249 0.0249 0.0251 0.0253 
3246.336546 0.0253 0.0253 0.0256 0.0258 0.0259 0.0261 0.0263 0.0264 0.0265 
3255.016590 0.0267 0.0268 0.0270 0.0273 0.0275 0.0277 0.0278 0.0279 0.0281 
3263.696634 0.0283 0.0284 0.0286 0.0288 0.0290 0.0291 0.0290 0.0292 0.0294 
3272.376678 0.0296 0.0298 0.0302 0.0303 0.0306 0.0308 0.0309 0.0312 0.0313 
3281.056723 0.0315 0.0317 0.0319 0.0321 0.0323 0.0324 0.0326 0.0329 0.0331 
3289.736767 0.0333 0.0334 0.0335 0.0337 0.0340 0.0342 0.0345 0.0347 0.0349 
3298.416811 0.0352 0.0354 0.0356 0.0357 0.0359 0.0362 0.0362 0.0364 0.0366 
3307.096855 0.0368 0.0370 0.0373 0.0376 0.0379 0.0381 0.0383 0.0386 0.0388 
3315.776900 0.0390 0.0392 0.0394 0.0397 0.0400 0.0402 0.0402 0.0405 0.0407 
3324.456944 0.0407 0.0408 0.0411 0.0413 0.0415 0.0417 0.0419 0.0420 0.0422 
3333.136988 0.0424 0.0427 0.0428 0.0427 0.0430 0.0431 0.0432 0.0434 0.0436 
3341.817032 0.0437 0.0439 0.0441 0.0444 0.0445 0.0446 0.0447 0.0449 0.0450 
3350.497077 0.0450 0.0451 0.0453 0.0456 0.0458 0.0459 0.0460 0.0461 0.0461 
3359.177121 0.0463 0.0465 0.0467 0.0469 0.0468 0.0469 0.0470 0.0470 0.0471 
3367.857165 0.0471 0.0470 0.0471 0.0474 0.0476 0.0477 0.0478 0.0480 0.0480 
3376.537209 0.0479 0.0481 0.0483 0.0484 0.0484 0.0485 0.0487 0.0488 0.0489 
3385.217254 0.0490 0.0490 0.0489 0.0490 0.0491 0.0491 0.0490 0.0492 0.0496 
3393.897298 0.0497 0.0496 0.0497 0.0498 0.0498 0.0498 0.0498 0.0498 0.0500 
3402.577342 0.0500 0.0503 0.0504 0.0503 0.0505 0.0506 0.0505 0.0505 0.0507 
3411.257386 0.0508 0.0508 0.0509 0.0511 0.0513 0.0514 0.0515 0.0515 0.0515 
3419.937431 0.0515 0.0517 0.0517 0.0519 0.0520 0.0520 0.0520 0.0520 0.0520 
3428.617475 0.0521 0.0521 0.0523 0.0524 0.0526 0.0526 0.0525 0.0525 0.0527 
3437.297519 0.0528 0.0530 0.0532 0.0533 0.0534 0.0536 0.0539 0.0539 0.0539 
3445.977563 0.0538 0.0541 0.0544 0.0543 0.0543 0.0544 0.0545 0.0547 0.0548 
3454.657608 0.0548 0.0550 0.0551 0.0551 0.0551 0.0552 0.0553 0.0554 0.0556 
3463.337652 0.0557 0.0557 0.0556 0.0556 0.0558 0.0557 0.0557 0.0558 0.0559 
3472.017696 0.0560 0.0561 0.0561 0.0561 0.0560 0.0560 0.0558 0.0556 0.0555 
3480.697740 0.0556 0.0556 0.0557 0.0554 0.0553 0.0551 0.0547 0.0546 0.0547 
3489.377784 0.0545 0.0543 0.0539 0.0536 0.0533 0.0530 0.0529 0.0526 0.0523 
3498.057829 0.0518 0.0516 0.0513 0.0507 0.0502 0.0500 0.0499 0.0494 0.0489 
3506.737873 0.0484 0.0480 0.0475 0.0474 0.0467 0.0461 0.0455 0.0451 0.0446 
3515.417917 0.0441 0.0435 0.0430 0.0425 0.0421 0.0414 0.0409 0.0402 0.0397 
3524.097961 0.0391 0.0387 0.0382 0.0378 0.0371 0.0367 0.0361 0.0355 0.0352 
3532.778006 0.0346 0.0341 0.0333 0.0327 0.0327 0.0321 0.0317 0.0313 0.0308 
3541.458050 0.0300 0.0295 0.0291 0.0285 0.0284 0.0282 0.0283 0.0277 0.0270 
3550.138094 0.0265 0.0258 0.0258 0.0257 0.0254 0.0250 0.0244 0.0240 0.0237 
3558.818138 0.0232 0.0232 0.0230 0.0225 0.0223 0.0221 0.0214 0.0210 0.0218 
3567.498183 0.0212 0.0220 0.0210 0.0204 0.0202 0.0199 0.0196 0.0195 0.0194 
3576.178227 0.0189 0.0190 0.0188 0.0184 0.0186 0.0184 0.0178 0.0176 0.0176 
3584.858271 0.0168 0.0162 0.0175 0.0174 0.0182 0.0179 0.0170 0.0165 0.0164 
3593.538315 0.0169 0.0162 0.0170 0.0169 0.0161 0.0162 0.0161 0.0160 0.0165 
3602.218360 0.0163 0.0163 0.0163 0.0161 0.0157 0.0168 0.0162 0.0168 0.0185 
3610.898404 0.0171 0.0168 0.0184 0.0181 0.0190 0.0196 0.0188 0.0199 0.0204 
3619.578448 0.0219 0.0233 0.0235 0.0239 0.0246 0.0252 0.0256 0.0265 0.0259 
3628.258492 0.0262 0.0299 0.0309 0.0297 0.0291 0.0291 0.0307 0.0309 0.0307 
3636.938537 0.0307 0.0311 0.0313 0.0308 0.0301 0.0294 0.0289 0.0277 0.0261 
3645.618581 0.0239 0.0229 0.0227 0.0204 0.0195 0.0190 0.0200 0.0184 0.0173 
3654.298625 0.0162 0.0149 0.0163 0.0165 0.0150 0.0145 0.0144 0.0146 0.0144 
3662.978669 0.0143 0.0140 0.0140 0.0140 0.0136 0.0130 0.0136 0.0131 0.0155 
3671.658714 0.0165 0.0146 0.0134 0.0129 0.0160 0.0176 0.0163 0.0153 0.0161 
3680.338758 0.0168 0.0164 0.0164 0.0163 0.0164 0.0165 0.0158 0.0142 0.0145 
3689.018802 0.0162 0.0140 0.0145 0.0150 0.0135 0.0130 0.0126 0.0122 0.0120 
3697.698846 0.0117 0.0117 0.0114 0.0102 0.0109 0.0121 0.0111 0.0105 0.0103 
3706.378890 0.0104 0.0099 0.0090 0.0100 0.0100 0.0086 0.0113 0.0115 0.0101 
3715.058935 0.0102 0.0099 0.0095 0.0091 0.0098 0.0099 0.0086 0.0086 0.0102 
3723.738979 0.0094 0.0092 0.0090 0.0096 0.0099 0.0092 0.0089 0.0083 0.0080 
3732.419023 0.0100 0.0082 0.0077 0.0100 0.0098 0.0092 0.0088 0.0088 0.0082 
3741.099067 0.0092 0.0088 0.0066 0.0061 0.0124 0.0100 0.0085 0.0072 0.0066 
3749.779112 0.0095 0.0072 0.0069 0.0101 0.0093 0.0084 0.0078 0.0087 0.0087 
3758.459156 0.0073 0.0083 0.0095 0.0085 0.0081 0.0081 0.0076 0.0077 0.0091 
3767.139200 0.0086 0.0077 0.0070 0.0088 0.0090 0.0084 0.0082 0.0083 0.0084 
3775.819244 0.0084 0.0082 0.0077 0.0072 0.0086 0.0086 0.0083 0.0083 0.0079 
3784.499289 0.0082 0.0085 0.0082 0.0082 0.0084 0.0084 0.0082 0.0082 0.0083 
3793.179333 0.0085 0.0084 0.0076 0.0079 0.0092 0.0089 0.0084 0.0069 0.0070 
3801.859377 0.0098 0.0101 0.0093 0.0085 0.0072 0.0081 0.0105 0.0092 0.0087 
3810.539421 0.0087 0.0088 0.0090 0.0090 0.0079 0.0071 0.0102 0.0098 0.0086 
3819.219466 0.0077 0.0071 0.0093 0.0108 0.0096 0.0092 0.0088 0.0086 0.0093 
3827.899510 0.0094 0.0092 0.0088 0.0083 0.0099 0.0097 0.0082 0.0090 0.0099 
3836.579554 0.0076 0.0084 0.0102 0.0085 0.0095 0.0104 0.0086 0.0087 0.0102 
3845.259598 0.0095 0.0091 0.0090 0.0086 0.0086 0.0087 0.0076 0.0083 0.0073 
3853.939643 0.0090 0.0114 0.0087 0.0087 0.0094 0.0087 0.0083 0.0078 0.0089 
3862.619687 0.0093 0.0076 0.0079 0.0099 0.0091 0.0081 0.0069 0.0072 0.0096 
3871.299731 0.0092 0.0080 0.0070 0.0088 0.0092 0.0082 0.0082 0.0082 0.0071 
3879.979775 0.0077 0.0098 0.0083 0.0079 0.0077 0.0065 0.0085 0.0092 0.0079 
3888.659820 0.0078 0.0071 0.0066 0.0087 0.0086 0.0081 0.0082 0.0080 0.0079 
3897.339864 0.0075 0.0070 0.0085 0.0080 0.0069 0.0087 0.0074 0.0079 0.0084 
3906.019908 0.0085 0.0083 0.0079 0.0079 0.0078 0.0078 0.0078 0.0078 0.0079 
3914.699952 0.0078 0.0073 0.0078 0.0087 0.0076 0.0074 0.0085 0.0081 0.0077 
3923.379996 0.0077 0.0080 0.0086 0.0082 0.0079 0.0079 0.0081 0.0083 0.0077 
3932.060041 0.0083 0.0088 0.0082 0.0082 0.0080 0.0079 0.0082 0.0085 0.0084 
3940.740085 0.0082 0.0077 0.0088 0.0091 0.0088 0.0086 0.0083 0.0087 0.0087 
3949.420129 0.0085 0.0092 0.0090 0.0089 0.0090 0.0090 0.0090 0.0091 0.0093 
3958.100173 0.0093 0.0092 0.0092 0.0091 0.0094 0.0096 0.0094 0.0094 0.0094 
3966.780218 0.0095 0.0095 0.0095 0.0097 0.0096 0.0097 0.0100 0.0098 0.0097 
3975.460262 0.0099 0.0101 0.0100 0.0099 0.0101 0.0103 0.0102 0.0101 0.0101 
3984.140306 0.0100 0.0102 0.0104 0.0105 0.0103 0.0103 0.0104 0.0105 0.0104 
3992.820350 0.0102 0.0099 0.0102 0.0103 0.0101 0.0100 0.0100 0.0102 0.0102 
##END=
