##JCAMP-DX=5.01
##FILENAME=KAM-16.jdx
##XUNITS=1/CM
##YUNITS=ABSORBANCE
##FIRSTX=399.282035
##LASTX=4000.535945
##MAXX=4000.535945
##MINX=399.282035
##FIRSTY=0.0015
##LASTY=0.0010
##MAXY=0.8339
##MINY=0.0000
##NPOINTS=3735
##XFACTOR=1
##YFACTOR=1
##XYDATA=(X++(Y..Y))
399.282035 0.0015 0.0100 0.0076 0.0010 0.0010 0.0010 0.0010 0.0010 0.0040 0.0027 
408.926529 0.0010 0.0010 0.0009 0.0062 0.0096 0.0095 0.0079 0.0070 0.0052 0.0013 
418.571022 0.0010 0.0010 0.0010 0.0010 0.0039 0.0073 0.0040 0.0010 0.0010 0.0010 
428.215516 0.0005 0.0003 0.0010 0.0008 0.0015 0.0023 0.0031 0.0050 0.0058 0.0058 
437.860009 0.0056 0.0053 0.0059 0.0058 0.0035 0.0022 0.0028 0.0030 0.0034 0.0037 
447.504503 0.0035 0.0039 0.0036 0.0026 0.0024 0.0028 0.0014 0.0015 0.0022 0.0021 
457.148997 0.0008 0.0016 0.0025 0.0026 0.0024 0.0016 0.0021 0.0025 0.0021 0.0008 
466.793490 0.0008 0.0007 0.0004 0.0013 0.0024 0.0027 0.0004 0.0010 0.0005 0.0002 
476.437984 0.0005 0.0018 0.0023 0.0026 0.0033 0.0031 0.0031 0.0028 0.0014 0.0013 
486.082477 0.0015 0.0011 0.0012 0.0021 0.0018 0.0018 0.0024 0.0026 0.0033 0.0035 
495.726971 0.0036 0.0037 0.0032 0.0032 0.0038 0.0043 0.0048 0.0049 0.0046 0.0046 
505.371465 0.0040 0.0040 0.0042 0.0039 0.0037 0.0040 0.0039 0.0036 0.0038 0.0037 
515.015958 0.0042 0.0045 0.0035 0.0038 0.0046 0.0043 0.0039 0.0043 0.0045 0.0048 
524.660452 0.0047 0.0042 0.0042 0.0045 0.0044 0.0039 0.0038 0.0033 0.0010 0.0007 
534.304945 0.0024 0.0039 0.0038 0.0040 0.0046 0.0050 0.0054 0.0053 0.0051 0.0057 
543.949439 0.0063 0.0064 0.0066 0.0074 0.0081 0.0090 0.0100 0.0111 0.0123 0.0138 
553.593933 0.0152 0.0175 0.0205 0.0239 0.0285 0.0340 0.0397 0.0465 0.0536 0.0600 
563.238426 0.0656 0.0693 0.0700 0.0681 0.0638 0.0585 0.0527 0.0470 0.0419 0.0373 
572.882920 0.0331 0.0289 0.0246 0.0206 0.0175 0.0150 0.0129 0.0113 0.0095 0.0082 
582.527413 0.0079 0.0076 0.0067 0.0057 0.0052 0.0049 0.0044 0.0042 0.0041 0.0040 
592.171907 0.0036 0.0033 0.0034 0.0032 0.0032 0.0032 0.0031 0.0030 0.0029 0.0028 
601.816401 0.0027 0.0027 0.0027 0.0026 0.0028 0.0029 0.0029 0.0028 0.0029 0.0030 
611.460894 0.0033 0.0035 0.0037 0.0039 0.0042 0.0043 0.0045 0.0046 0.0044 0.0042 
621.105388 0.0041 0.0040 0.0041 0.0046 0.0050 0.0055 0.0059 0.0064 0.0069 0.0076 
630.749881 0.0088 0.0101 0.0131 0.0162 0.0185 0.0212 0.0242 0.0258 0.0302 0.0350 
640.394375 0.0400 0.0451 0.0501 0.0559 0.0608 0.0644 0.0667 0.0675 0.0664 0.0633 
650.038869 0.0010 0.0010 0.0010 0.0010 0.0010 0.0010 0.0010 0.0010 0.0010 0.0010 
659.683362 0.0010 0.0010 0.0010 0.0010 0.0010 0.0010 0.0010 0.0010 0.0010 0.0010 
669.327856 0.0010 0.0010 0.0010 0.0010 0.0010 0.0010 0.0010 0.0010 0.0010 0.0010 
678.972349 0.0010 0.0010 0.0010 0.0010 0.0010 0.0010 0.0010 0.0010 0.0010 0.0010 
688.616843 0.0010 0.0010 0.0010 0.0010 0.0010 0.0010 0.0010 0.0010 0.0010 0.0010 
698.261337 0.0010 0.0010 0.0010 0.0010 0.0010 0.0010 0.0010 0.0010 0.0010 0.0010 
707.905830 0.0010 0.0010 0.0010 0.0010 0.0010 0.0010 0.0010 0.0010 0.0010 0.0010 
717.550324 0.0010 0.0010 0.0010 0.0010 0.0010 0.0010 0.0010 0.0010 0.0010 0.0010 
727.194817 0.0010 0.0010 0.0010 0.0010 0.0010 0.0010 0.0010 0.0010 0.0010 0.0010 
736.839311 0.0010 0.0010 0.0010 0.0010 0.0010 0.0010 0.0010 0.0010 0.0010 0.0010 
746.483805 0.0010 0.0010 0.0010 0.0010 0.0010 0.0010 0.0010 0.0010 0.0010 0.0010 
756.128298 0.0010 0.0010 0.0010 0.0010 0.0010 0.0010 0.0010 0.0010 0.0010 0.0010 
765.772792 0.0010 0.0010 0.0010 0.0010 0.0010 0.0010 0.0010 0.0010 0.0010 0.0010 
775.417285 0.0010 0.0010 0.0010 0.0010 0.0010 0.0010 0.0010 0.0010 0.0010 0.0010 
785.061779 0.0010 0.0010 0.0010 0.0010 0.0010 0.0010 0.0010 0.0010 0.0010 0.0010 
794.706273 0.0010 0.0010 0.0010 0.0010 0.0010 0.0010 0.0010 0.0010 0.0010 0.0010 
804.350766 0.0010 0.0010 0.0010 0.0010 0.0010 0.0010 0.0010 0.0010 0.0010 0.0010 
813.995260 0.0010 0.0010 0.0010 0.0010 0.0010 0.0010 0.0010 0.0010 0.0010 0.0010 
823.639753 0.0010 0.0010 0.0010 0.0010 0.0010 0.0010 0.0010 0.0010 0.0010 0.0010 
833.284247 0.0010 0.0010 0.0010 0.0010 0.0010 0.0010 0.0010 0.0010 0.0010 0.0010 
842.928741 0.0010 0.0010 0.0010 0.0010 0.0010 0.0010 0.0010 0.0010 0.0010 0.0010 
852.573234 0.0010 0.0010 0.0010 0.0010 0.0010 0.0010 0.0010 0.0010 0.0037 0.0046 
862.217728 0.0057 0.0069 0.0081 0.0091 0.0101 0.0109 0.0112 0.0112 0.0112 0.0113 
871.862221 0.0111 0.0109 0.0106 0.0103 0.0100 0.0096 0.0092 0.0089 0.0085 0.0081 
881.506715 0.0077 0.0074 0.0073 0.0075 0.0077 0.0080 0.0082 0.0086 0.0087 0.0084 
891.151209 0.0079 0.0072 0.0063 0.0050 0.0038 0.0027 0.0016 0.0005 0.0010 0.0010 
900.795702 0.0010 0.0010 0.0010 0.0010 0.0010 0.0010 0.0010 0.0010 0.0010 0.0011 
910.440196 0.0024 0.0039 0.0056 0.0073 0.0091 0.0109 0.0126 0.0140 0.0147 0.0149 
920.084689 0.0146 0.0140 0.0133 0.0124 0.0116 0.0110 0.0105 0.0100 0.0096 0.0091 
929.729183 0.0086 0.0081 0.0074 0.0067 0.0059 0.0054 0.0053 0.0053 0.0051 0.0050 
939.373677 0.0050 0.0052 0.0054 0.0057 0.0060 0.0066 0.0075 0.0087 0.0100 0.0114 
949.018170 0.0129 0.0143 0.0152 0.0157 0.0159 0.0160 0.0159 0.0157 0.0152 0.0144 
958.662664 0.0135 0.0125 0.0117 0.0110 0.0105 0.0101 0.0098 0.0093 0.0084 0.0075 
968.307157 0.0067 0.0060 0.0056 0.0053 0.0050 0.0049 0.0050 0.0051 0.0052 0.0053 
977.951651 0.0056 0.0061 0.0067 0.0074 0.0082 0.0091 0.0099 0.0106 0.0113 0.0121 
987.596145 0.0127 0.0131 0.0133 0.0133 0.0131 0.0127 0.0124 0.0123 0.0124 0.0125 
997.240638 0.0125 0.0126 0.0126 0.0126 0.0129 0.0134 0.0142 0.0151 0.0162 0.0174 
1006.885132 0.0186 0.0200 0.0216 0.0233 0.0250 0.0266 0.0279 0.0289 0.0298 
1015.565176 0.0307 0.0315 0.0322 0.0329 0.0337 0.0345 0.0355 0.0367 0.0379 
1024.245220 0.0391 0.0403 0.0413 0.0423 0.0431 0.0439 0.0447 0.0454 0.0459 
1032.925265 0.0462 0.0463 0.0464 0.0464 0.0465 0.0467 0.0470 0.0475 0.0481 
1041.605309 0.0487 0.0496 0.0506 0.0515 0.0524 0.0533 0.0546 0.0561 0.0577 
1050.285353 0.0594 0.0613 0.0631 0.0648 0.0663 0.0672 0.0674 0.0668 0.0653 
1058.965397 0.0629 0.0598 0.0562 0.0526 0.0490 0.0459 0.0435 0.0417 0.0402 
1067.645442 0.0389 0.0378 0.0367 0.0355 0.0342 0.0329 0.0316 0.0304 0.0292 
1076.325486 0.0281 0.0272 0.0263 0.0255 0.0248 0.0242 0.0236 0.0229 0.0219 
1085.005530 0.0207 0.0193 0.0176 0.0158 0.0139 0.0122 0.0108 0.0095 0.0084 
1093.685574 0.0076 0.0071 0.0066 0.0064 0.0063 0.0064 0.0067 0.0070 0.0075 
1102.365618 0.0080 0.0084 0.0087 0.0092 0.0096 0.0098 0.0098 0.0097 0.0096 
1111.045663 0.0098 0.0100 0.0102 0.0103 0.0103 0.0099 0.0093 0.0087 0.0081 
1119.725707 0.0075 0.0068 0.0062 0.0057 0.0052 0.0048 0.0044 0.0041 0.0038 
1128.405751 0.0035 0.0032 0.0031 0.0031 0.0029 0.0027 0.0026 0.0025 0.0023 
1137.085795 0.0022 0.0021 0.0020 0.0020 0.0019 0.0018 0.0018 0.0017 0.0017 
1145.765840 0.0018 0.0019 0.0019 0.0020 0.0020 0.0022 0.0023 0.0026 0.0030 
1154.445884 0.0034 0.0037 0.0041 0.0046 0.0048 0.0049 0.0049 0.0048 0.0045 
1163.125928 0.0042 0.0040 0.0039 0.0040 0.0041 0.0044 0.0049 0.0053 0.0056 
1171.805972 0.0059 0.0062 0.0064 0.0066 0.0067 0.0067 0.0065 0.0064 0.0064 
1180.486017 0.0066 0.0069 0.0074 0.0080 0.0086 0.0094 0.0100 0.0104 0.0106 
1189.166061 0.0108 0.0111 0.0116 0.0123 0.0134 0.0147 0.0162 0.0180 0.0205 
1197.846105 0.0239 0.0284 0.0346 0.0432 0.0538 0.0627 0.0647 0.0601 0.0533 
1206.526149 0.0471 0.0414 0.0357 0.0304 0.0258 0.0218 0.0185 0.0161 0.0144 
1215.206194 0.0132 0.0124 0.0120 0.0120 0.0122 0.0126 0.0134 0.0145 0.0158 
1223.886238 0.0178 0.0203 0.0237 0.0283 0.0341 0.0411 0.0481 0.0535 0.0559 
1232.566282 0.0558 0.0556 0.0576 0.0629 0.0715 0.0822 0.0932 0.1036 0.1135 
1241.246326 0.1210 0.1208 0.1107 0.0957 0.0829 0.0750 0.0719 0.0727 0.0759 
1249.926371 0.0801 0.0845 0.0893 0.0944 0.0987 0.1006 0.0984 0.0919 0.0829 
1258.606415 0.0739 0.0655 0.0574 0.0505 0.0449 0.0403 0.0368 0.0343 0.0326 
1267.286459 0.0318 0.0321 0.0332 0.0352 0.0383 0.0426 0.0476 0.0534 0.0597 
1275.966503 0.0660 0.0704 0.0723 0.0716 0.0696 0.0675 0.0662 0.0654 0.0642 
1284.646548 0.0617 0.0582 0.0539 0.0496 0.0455 0.0423 0.0397 0.0380 0.0370 
1293.326592 0.0366 0.0366 0.0366 0.0366 0.0365 0.0362 0.0358 0.0357 0.0362 
1302.006636 0.0370 0.0376 0.0376 0.0370 0.0358 0.0346 0.0333 0.0323 0.0313 
1310.686680 0.0301 0.0283 0.0263 0.0244 0.0229 0.0217 0.0208 0.0198 0.0188 
1319.366724 0.0174 0.0160 0.0148 0.0139 0.0133 0.0128 0.0128 0.0125 0.0126 
1328.046769 0.0128 0.0133 0.0139 0.0145 0.0151 0.0161 0.0175 0.0192 0.0212 
1336.726813 0.0234 0.0252 0.0264 0.0270 0.0271 0.0269 0.0264 0.0252 0.0233 
1345.406857 0.0215 0.0201 0.0194 0.0192 0.0192 0.0193 0.0195 0.0197 0.0198 
1354.086901 0.0197 0.0194 0.0190 0.0189 0.0189 0.0192 0.0195 0.0198 0.0199 
1362.766946 0.0203 0.0201 0.0198 0.0200 0.0205 0.0215 0.0231 0.0246 0.0259 
1371.446990 0.0274 0.0291 0.0316 0.0358 0.0422 0.0509 0.0622 0.0755 0.0844 
1380.127034 0.0835 0.0740 0.0611 0.0499 0.0416 0.0382 0.0345 0.0321 0.0296 
1388.807078 0.0276 0.0265 0.0254 0.0240 0.0230 0.0226 0.0221 0.0210 0.0198 
1397.487123 0.0191 0.0188 0.0183 0.0172 0.0166 0.0162 0.0162 0.0163 0.0160 
1406.167167 0.0152 0.0147 0.0143 0.0143 0.0142 0.0142 0.0142 0.0141 0.0139 
1414.847211 0.0151 0.0164 0.0177 0.0185 0.0200 0.0212 0.0211 0.0217 0.0233 
1423.527255 0.0256 0.0292 0.0325 0.0354 0.0429 0.0527 0.0635 0.0749 0.0782 
1432.207300 0.0756 0.0716 0.0696 0.0710 0.0758 0.0908 0.0977 0.0979 0.0937 
1440.887344 0.0873 0.0819 0.0777 0.0755 0.0750 0.0759 0.0775 0.0807 0.0859 
1449.567388 0.0916 0.1001 0.1102 0.1218 0.1309 0.1387 0.1466 0.1559 0.1651 
1458.247432 0.1671 0.1661 0.1663 0.1645 0.1607 0.1559 0.1566 0.1686 0.1853 
1466.927477 0.1937 0.1936 0.1739 0.1452 0.1175 0.0949 0.0713 0.0584 0.0498 
1475.607521 0.0460 0.0398 0.0350 0.0312 0.0266 0.0240 0.0214 0.0184 0.0158 
1484.287565 0.0138 0.0127 0.0121 0.0115 0.0105 0.0103 0.0099 0.0083 0.0067 
1492.967609 0.0057 0.0052 0.0053 0.0056 0.0048 0.0038 0.0036 0.0023 0.0010 
1501.647654 0.0010 0.0010 0.0010 0.0010 0.0010 0.0010 0.0010 0.0010 0.0010 
1510.327698 0.0010 0.0010 0.0010 0.0010 0.0010 0.0010 0.0010 0.0010 0.0010 
1519.007742 0.0010 0.0010 0.0010 0.0010 0.0010 0.0010 0.0010 0.0010 0.0010 
1527.687786 0.0010 0.0010 0.0010 0.0010 0.0010 0.0010 0.0010 0.0010 0.0010 
1536.367830 0.0010 0.0010 0.0010 0.0010 0.0010 0.0010 0.0010 0.0010 0.0010 
1545.047875 0.0010 0.0010 0.0010 0.0010 0.0010 0.0010 0.0010 0.0010 0.0010 
1553.727919 0.0010 0.0010 0.0010 0.0010 0.0010 0.0010 0.0010 0.0010 0.0010 
1562.407963 0.0010 0.0010 0.0010 0.0010 0.0010 0.0010 0.0010 0.0010 0.0010 
1571.088007 0.0010 0.0010 0.0010 0.0010 0.0010 0.0010 0.0010 0.0010 0.0010 
1579.768052 0.0010 0.0010 0.0010 0.0010 0.0010 0.0010 0.0010 0.0010 0.0010 
1588.448096 0.0010 0.0010 0.0010 0.0010 0.0010 0.0010 0.0010 0.0010 0.0010 
1597.128140 0.0010 0.0010 0.0010 0.0010 0.0010 0.0010 0.0010 0.0010 0.0010 
1605.808184 0.0010 0.0010 0.0010 0.0010 0.0010 0.0010 0.0010 0.0010 0.0010 
1614.488229 0.0010 0.0010 0.0010 0.0010 0.0010 0.0010 0.0010 0.0010 0.0010 
1623.168273 0.0010 0.0010 0.0010 0.0010 0.0010 0.0010 0.0010 0.0010 0.0010 
1631.848317 0.0010 0.0010 0.0010 0.0010 0.0010 0.0010 0.0010 0.0010 0.0010 
1640.528361 0.0010 0.0010 0.0010 0.0010 0.0010 0.0010 0.0010 0.0010 0.0010 
1649.208406 0.0010 0.0010 0.0010 0.0010 0.0010 0.0010 0.0010 0.0010 0.0010 
1657.888450 0.0010 0.0010 0.0010 0.0010 0.0010 0.0010 0.0010 0.0010 0.0010 
1666.568494 0.0010 0.0010 0.0010 0.0010 0.0010 0.0010 0.0010 0.0010 0.0010 
1675.248538 0.0010 0.0010 0.0010 0.0010 0.0010 0.0010 0.0010 0.0010 0.0010 
1683.928583 0.0010 0.0010 0.0010 0.0010 0.0010 0.0010 0.0010 0.0010 0.0010 
1692.608627 0.0010 0.0010 0.0010 0.0010 0.0010 0.0010 0.0010 0.0010 0.0010 
1701.288671 0.0010 0.0010 0.0010 0.0010 0.0010 0.0010 0.0010 0.0010 0.0010 
1709.968715 0.0010 0.0010 0.0010 0.0010 0.0010 0.0010 0.0010 0.0010 0.0010 
1718.648760 0.0010 0.0010 0.0010 0.0010 0.0010 0.0010 0.0010 0.0010 0.0010 
1727.328804 0.0010 0.0010 0.0010 0.0010 0.0010 0.0010 0.0010 0.0010 0.0010 
1736.008848 0.0010 0.0010 0.0010 0.0010 0.0010 0.0010 0.0010 0.0010 0.0010 
1744.688892 0.0010 0.0010 0.0010 0.0010 0.0010 0.0010 0.0010 0.0010 0.0010 
1753.368936 0.0010 0.0010 0.0010 0.0010 0.0010 0.0010 0.0010 0.0010 0.0010 
1762.048981 0.0010 0.0010 0.0010 0.0010 0.0010 0.0010 0.0010 0.0010 0.0010 
1770.729025 0.0010 0.0010 0.0010 0.0010 0.0010 0.0010 0.0010 0.0010 0.0010 
1779.409069 0.0010 0.0010 0.0010 0.0010 0.0010 0.0010 0.0010 0.0010 0.0010 
1788.089113 0.0010 0.0010 0.0010 0.0010 0.0010 0.0010 0.0010 0.0010 0.0010 
1796.769158 0.0010 0.0010 0.0010 0.0010 0.0010 0.0010 0.0010 0.0010 0.0010 
1805.449202 0.0010 0.0010 0.0010 0.0010 0.0010 0.0010 0.0010 0.0010 0.0010 
1814.129246 0.0010 0.0010 0.0010 0.0010 0.0010 0.0010 0.0010 0.0010 0.0010 
1822.809290 0.0010 0.0010 0.0010 0.0010 0.0010 0.0010 0.0010 0.0010 0.0010 
1831.489335 0.0010 0.0010 0.0010 0.0010 0.0010 0.0010 0.0010 0.0010 0.0010 
1840.169379 0.0010 0.0010 0.0010 0.0010 0.0010 0.0010 0.0010 0.0010 0.0010 
1848.849423 0.0010 0.0010 0.0010 0.0010 0.0010 0.0010 0.0010 0.0010 0.0010 
1857.529467 0.0010 0.0010 0.0010 0.0010 0.0010 0.0010 0.0010 0.0010 0.0010 
1866.209512 0.0010 0.0010 0.0010 0.0010 0.0010 0.0010 0.0010 0.0010 0.0010 
1874.889556 0.0010 0.0010 0.0010 0.0010 0.0010 0.0010 0.0010 0.0010 0.0010 
1883.569600 0.0010 0.0010 0.0010 0.0010 0.0010 0.0010 0.0010 0.0010 0.0010 
1892.249644 0.0010 0.0010 0.0010 0.0010 0.0010 0.0010 0.0010 0.0010 0.0010 
1900.929689 0.0010 0.0010 0.0010 0.0010 0.0010 0.0010 0.0010 0.0010 0.0010 
1909.609733 0.0010 0.0010 0.0010 0.0010 0.0010 0.0010 0.0010 0.0010 0.0010 
1918.289777 0.0010 0.0010 0.0010 0.0010 0.0010 0.0010 0.0010 0.0010 0.0010 
1926.969821 0.0010 0.0010 0.0010 0.0010 0.0010 0.0010 0.0010 0.0010 0.0010 
1935.649866 0.0010 0.0010 0.0010 0.0010 0.0010 0.0010 0.0010 0.0010 0.0010 
1944.329910 0.0010 0.0010 0.0010 0.0010 0.0010 0.0010 0.0010 0.0010 0.0010 
1953.009954 0.0010 0.0010 0.0010 0.0010 0.0010 0.0010 0.0010 0.0010 0.0010 
1961.689998 0.0010 0.0010 0.0010 0.0010 0.0010 0.0010 0.0010 0.0010 0.0010 
1970.370042 0.0010 0.0010 0.0010 0.0010 0.0010 0.0010 0.0010 0.0010 0.0010 
1979.050087 0.0010 0.0010 0.0010 0.0010 0.0010 0.0010 0.0010 0.0010 0.0010 
1987.730131 0.0010 0.0010 0.0010 0.0010 0.0010 0.0010 0.0010 0.0010 0.0010 
1996.410175 0.0010 0.0010 0.0010 0.0010 0.0010 0.0010 0.0010 0.0010 0.0010 
2005.090219 0.0010 0.0010 0.0010 0.0010 0.0010 0.0010 0.0010 0.0010 0.0010 
2013.770264 0.0010 0.0010 0.0010 0.0010 0.0010 0.0010 0.0010 0.0010 0.0010 
2022.450308 0.0010 0.0010 0.0010 0.0010 0.0010 0.0010 0.0010 0.0010 0.0010 
2031.130352 0.0010 0.0010 0.0010 0.0010 0.0010 0.0010 0.0010 0.0010 0.0010 
2039.810396 0.0010 0.0010 0.0010 0.0010 0.0010 0.0010 0.0010 0.0010 0.0010 
2048.490441 0.0010 0.0010 0.0010 0.0010 0.0010 0.0010 0.0010 0.0010 0.0010 
2057.170485 0.0010 0.0010 0.0010 0.0010 0.0010 0.0010 0.0010 0.0010 0.0010 
2065.850529 0.0010 0.0010 0.0010 0.0010 0.0010 0.0010 0.0010 0.0010 0.0010 
2074.530573 0.0010 0.0010 0.0010 0.0010 0.0010 0.0010 0.0010 0.0010 0.0010 
2083.210618 0.0010 0.0010 0.0010 0.0010 0.0010 0.0010 0.0010 0.0010 0.0010 
2091.890662 0.0010 0.0010 0.0010 0.0010 0.0010 0.0010 0.0010 0.0010 0.0010 
2100.570706 0.0010 0.0010 0.0010 0.0010 0.0010 0.0010 0.0010 0.0010 0.0010 
2109.250750 0.0010 0.0010 0.0010 0.0010 0.0010 0.0010 0.0010 0.0010 0.0010 
2117.930795 0.0010 0.0010 0.0010 0.0010 0.0010 0.0010 0.0010 0.0010 0.0010 
2126.610839 0.0010 0.0010 0.0010 0.0010 0.0010 0.0010 0.0010 0.0010 0.0010 
2135.290883 0.0010 0.0010 0.0010 0.0010 0.0010 0.0010 0.0010 0.0010 0.0010 
2143.970927 0.0010 0.0010 0.0010 0.0010 0.0010 0.0010 0.0010 0.0010 0.0010 
2152.650972 0.0010 0.0010 0.0010 0.0010 0.0010 0.0010 0.0010 0.0010 0.0010 
2161.331016 0.0010 0.0010 0.0010 0.0010 0.0010 0.0010 0.0010 0.0010 0.0010 
2170.011060 0.0010 0.0010 0.0010 0.0010 0.0010 0.0010 0.0010 0.0010 0.0010 
2178.691104 0.0010 0.0010 0.0010 0.0010 0.0010 0.0010 0.0010 0.0010 0.0010 
2187.371148 0.0010 0.0010 0.0010 0.0010 0.0010 0.0010 0.0010 0.0010 0.0010 
2196.051193 0.0010 0.0010 0.0010 0.0010 0.0010 0.0010 0.0010 0.0010 0.0010 
2204.731237 0.0010 0.0010 0.0010 0.0010 0.0010 0.0010 0.0010 0.0010 0.0010 
2213.411281 0.0010 0.0010 0.0010 0.0010 0.0010 0.0010 0.0010 0.0010 0.0010 
2222.091325 0.0010 0.0010 0.0010 0.0010 0.0010 0.0010 0.0010 0.0010 0.0010 
2230.771370 0.0010 0.0010 0.0010 0.0010 0.0010 0.0010 0.0010 0.0010 0.0010 
2239.451414 0.0010 0.0010 0.0010 0.0010 0.0010 0.0010 0.0010 0.0010 0.0010 
2248.131458 0.0010 0.0010 0.0010 0.0010 0.0010 0.0010 0.0010 0.0010 0.0010 
2256.811502 0.0010 0.0010 0.0010 0.0010 0.0010 0.0010 0.0010 0.0010 0.0010 
2265.491547 0.0010 0.0010 0.0010 0.0010 0.0010 0.0010 0.0010 0.0010 0.0010 
2274.171591 0.0010 0.0010 0.0010 0.0010 0.0010 0.0010 0.0010 0.0010 0.0010 
2282.851635 0.0010 0.0010 0.0010 0.0010 0.0010 0.0010 0.0010 0.0010 0.0010 
2291.531679 0.0010 0.0010 0.0010 0.0010 0.0010 0.0010 0.0010 0.0010 0.0010 
2300.211724 0.0010 0.0010 0.0010 0.0010 0.0010 0.0010 0.0010 0.0010 0.0010 
2308.891768 0.0010 0.0010 0.0010 0.0010 0.0010 0.0010 0.0010 0.0010 0.0010 
2317.571812 0.0010 0.0010 0.0010 0.0010 0.0010 0.0010 0.0010 0.0010 0.0010 
2326.251856 0.0010 0.0010 0.0010 0.0010 0.0010 0.0010 0.0010 0.0010 0.0010 
2334.931901 0.0010 0.0010 0.0010 0.0010 0.0010 0.0010 0.0010 0.0010 0.0010 
2343.611945 0.0010 0.0010 0.0010 0.0010 0.0010 0.0010 0.0010 0.0010 0.0010 
2352.291989 0.0010 0.0010 0.0010 0.0010 0.0010 0.0010 0.0010 0.0010 0.0010 
2360.972033 0.0010 0.0010 0.0010 0.0010 0.0010 0.0010 0.0010 0.0010 0.0010 
2369.652078 0.0010 0.0010 0.0010 0.0010 0.0010 0.0010 0.0010 0.0010 0.0010 
2378.332122 0.0010 0.0010 0.0010 0.0010 0.0010 0.0010 0.0010 0.0010 0.0010 
2387.012166 0.0010 0.0010 0.0010 0.0010 0.0010 0.0010 0.0010 0.0010 0.0010 
2395.692210 0.0010 0.0010 0.0010 0.0010 0.0010 0.0010 0.0010 0.0010 0.0010 
2404.372254 0.0010 0.0010 0.0010 0.0010 0.0010 0.0010 0.0010 0.0010 0.0010 
2413.052299 0.0010 0.0010 0.0010 0.0010 0.0010 0.0010 0.0010 0.0010 0.0010 
2421.732343 0.0010 0.0010 0.0010 0.0010 0.0010 0.0010 0.0010 0.0010 0.0010 
2430.412387 0.0010 0.0010 0.0010 0.0010 0.0010 0.0010 0.0010 0.0010 0.0010 
2439.092431 0.0010 0.0010 0.0010 0.0010 0.0010 0.0010 0.0010 0.0010 0.0010 
2447.772476 0.0010 0.0010 0.0010 0.0010 0.0010 0.0010 0.0010 0.0010 0.0010 
2456.452520 0.0010 0.0010 0.0010 0.0010 0.0010 0.0010 0.0010 0.0010 0.0010 
2465.132564 0.0010 0.0010 0.0010 0.0010 0.0010 0.0010 0.0010 0.0010 0.0010 
2473.812608 0.0010 0.0010 0.0010 0.0010 0.0010 0.0010 0.0010 0.0010 0.0010 
2482.492653 0.0010 0.0010 0.0010 0.0010 0.0010 0.0010 0.0010 0.0010 0.0010 
2491.172697 0.0010 0.0010 0.0010 0.0010 0.0010 0.0010 0.0010 0.0010 0.0010 
2499.852741 0.0010 0.0010 0.0010 0.0010 0.0010 0.0010 0.0010 0.0010 0.0010 
2508.532785 0.0010 0.0010 0.0010 0.0010 0.0010 0.0010 0.0010 0.0010 0.0010 
2517.212830 0.0010 0.0010 0.0010 0.0010 0.0010 0.0010 0.0010 0.0010 0.0010 
2525.892874 0.0010 0.0010 0.0010 0.0010 0.0010 0.0010 0.0010 0.0010 0.0010 
2534.572918 0.0010 0.0010 0.0010 0.0010 0.0010 0.0010 0.0010 0.0010 0.0010 
2543.252962 0.0010 0.0010 0.0010 0.0010 0.0010 0.0010 0.0010 0.0010 0.0010 
2551.933007 0.0010 0.0010 0.0010 0.0010 0.0010 0.0010 0.0010 0.0010 0.0010 
2560.613051 0.0010 0.0010 0.0010 0.0010 0.0010 0.0010 0.0010 0.0010 0.0010 
2569.293095 0.0010 0.0010 0.0010 0.0010 0.0010 0.0010 0.0010 0.0010 0.0010 
2577.973139 0.0010 0.0010 0.0010 0.0010 0.0010 0.0010 0.0010 0.0010 0.0010 
2586.653184 0.0010 0.0010 0.0010 0.0010 0.0010 0.0010 0.0010 0.0010 0.0010 
2595.333228 0.0010 0.0010 0.0010 0.0010 0.0010 0.0010 0.0010 0.0010 0.0010 
2604.013272 0.0010 0.0010 0.0010 0.0010 0.0010 0.0010 0.0010 0.0010 0.0010 
2612.693316 0.0010 0.0010 0.0010 0.0010 0.0010 0.0010 0.0010 0.0010 0.0010 
2621.373360 0.0010 0.0010 0.0010 0.0010 0.0010 0.0010 0.0010 0.0010 0.0010 
2630.053405 0.0010 0.0010 0.0010 0.0010 0.0010 0.0010 0.0010 0.0010 0.0010 
2638.733449 0.0010 0.0010 0.0010 0.0010 0.0010 0.0010 0.0010 0.0010 0.0010 
2647.413493 0.0010 0.0010 0.0010 0.0010 0.0010 0.0010 0.0010 0.0010 0.0010 
2656.093537 0.0010 0.0010 0.0010 0.0010 0.0010 0.0010 0.0010 0.0010 0.0010 
2664.773582 0.0010 0.0010 0.0010 0.0010 0.0010 0.0010 0.0010 0.0010 0.0010 
2673.453626 0.0010 0.0010 0.0010 0.0010 0.0010 0.0010 0.0010 0.0010 0.0010 
2682.133670 0.0010 0.0010 0.0010 0.0010 0.0010 0.0010 0.0010 0.0010 0.0010 
2690.813714 0.0010 0.0010 0.0010 0.0010 0.0010 0.0010 0.0010 0.0010 0.0010 
2699.493759 0.0010 0.0010 0.0010 0.0010 0.0010 0.0010 0.0010 0.0010 0.0010 
2708.173803 0.0010 0.0010 0.0010 0.0010 0.0010 0.0010 0.0010 0.0010 0.0010 
2716.853847 0.0010 0.0010 0.0010 0.0010 0.0010 0.0010 0.0001 0.0002 0.0004 
2725.533891 0.0006 0.0010 0.0014 0.0018 0.0023 0.0027 0.0031 0.0033 0.0033 
2734.213936 0.0031 0.0029 0.0027 0.0023 0.0020 0.0018 0.0016 0.0014 0.0012 
2742.893980 0.0011 0.0009 0.0007 0.0006 0.0005 0.0005 0.0004 0.0003 0.0002 
2751.574024 0.0002 0.0002 0.0001 0.0000 0.0010 0.0010 0.0010 0.0010 0.0010 
2760.254068 0.0010 0.0010 0.0001 0.0001 0.0002 0.0003 0.0004 0.0006 0.0007 
2768.934113 0.0009 0.0012 0.0014 0.0016 0.0018 0.0021 0.0024 0.0026 0.0030 
2777.614157 0.0033 0.0035 0.0039 0.0043 0.0047 0.0051 0.0055 0.0059 0.0063 
2786.294201 0.0067 0.0070 0.0073 0.0076 0.0079 0.0081 0.0083 0.0086 0.0089 
2794.974245 0.0093 0.0097 0.0101 0.0105 0.0110 0.0115 0.0120 0.0126 0.0131 
2803.654290 0.0137 0.0142 0.0149 0.0155 0.0162 0.0167 0.0173 0.0179 0.0186 
2812.334334 0.0194 0.0202 0.0211 0.0221 0.0231 0.0242 0.0255 0.0267 0.0280 
2821.014378 0.0294 0.0310 0.0326 0.0345 0.0365 0.0386 0.0411 0.0438 0.0468 
2829.694422 0.0500 0.0537 0.0579 0.0628 0.0685 0.0750 0.0820 0.0896 0.0969 
2838.374466 0.1035 0.1091 0.1141 0.1188 0.1242 0.1309 0.1397 0.1508 0.1645 
2847.054511 0.1806 0.1998 0.2212 0.2443 0.2679 0.2915 0.3140 0.3352 0.3545 
2855.734555 0.3725 0.3886 0.4032 0.4145 0.4213 0.4217 0.4155 0.4021 0.3845 
2864.414599 0.3651 0.3474 0.3330 0.3237 0.3194 0.3211 0.3282 0.3404 0.3539 
2873.094643 0.3637 0.3632 0.3504 0.3272 0.3003 0.2742 0.2519 0.2338 0.2201 
2881.774688 0.2096 0.2023 0.1973 0.1942 0.1927 0.1926 0.1936 0.1960 0.1991 
2890.454732 0.2034 0.2083 0.2140 0.2200 0.2263 0.2323 0.2383 0.2436 0.2487 
2899.134776 0.2535 0.2585 0.2639 0.2700 0.2766 0.2841 0.2924 0.3015 0.3111 
2907.814820 0.3216 0.3328 0.3451 0.3582 0.3730 0.3889 0.4068 0.4260 0.4466 
2916.494865 0.4682 0.4917 0.5160 0.5421 0.5683 0.5952 0.6218 0.6496 0.6771 
2925.174909 0.7053 0.7319 0.7581 0.7806 0.8000 0.8153 0.8284 0.8339 0.8329 
2933.854953 0.8224 0.8052 0.7797 0.7495 0.7153 0.6806 0.6451 0.6118 0.5797 
2942.534997 0.5504 0.5238 0.5017 0.4832 0.4696 0.4610 0.4592 0.4632 0.4740 
2951.215042 0.4904 0.5135 0.5418 0.5736 0.6050 0.6348 0.6603 0.6814 0.6955 
2959.895086 0.7039 0.7039 0.6961 0.6796 0.6559 0.6241 0.5868 0.5446 0.5012 
2968.575130 0.4570 0.4138 0.3721 0.3333 0.2976 0.2655 0.2367 0.2118 0.1899 
2977.255174 0.1708 0.1540 0.1395 0.1268 0.1158 0.1063 0.0981 0.0907 0.0841 
2985.935219 0.0783 0.0733 0.0688 0.0649 0.0614 0.0583 0.0555 0.0533 0.0514 
2994.615263 0.0498 0.0487 0.0477 0.0471 0.0469 0.0469 0.0471 0.0474 0.0477 
3003.295307 0.0479 0.0481 0.0480 0.0476 0.0469 0.0458 0.0443 0.0424 0.0403 
3011.975351 0.0380 0.0355 0.0329 0.0303 0.0279 0.0256 0.0233 0.0213 0.0195 
3020.655396 0.0179 0.0165 0.0151 0.0139 0.0128 0.0119 0.0110 0.0103 0.0096 
3029.335440 0.0089 0.0083 0.0078 0.0072 0.0068 0.0063 0.0058 0.0055 0.0052 
3038.015484 0.0048 0.0044 0.0040 0.0037 0.0034 0.0031 0.0027 0.0025 0.0022 
3046.695528 0.0020 0.0017 0.0014 0.0011 0.0008 0.0006 0.0005 0.0002 0.0000 
3055.375572 0.0010 0.0010 0.0010 0.0010 0.0010 0.0010 0.0010 0.0010 0.0010 
3064.055617 0.0010 0.0010 0.0010 0.0010 0.0010 0.0010 0.0010 0.0010 0.0010 
3072.735661 0.0010 0.0010 0.0010 0.0010 0.0010 0.0010 0.0010 0.0010 0.0010 
3081.415705 0.0010 0.0010 0.0010 0.0010 0.0010 0.0010 0.0010 0.0010 0.0010 
3090.095749 0.0010 0.0010 0.0010 0.0010 0.0010 0.0010 0.0010 0.0010 0.0010 
3098.775794 0.0010 0.0010 0.0010 0.0010 0.0010 0.0010 0.0010 0.0010 0.0010 
3107.455838 0.0010 0.0010 0.0010 0.0010 0.0010 0.0010 0.0010 0.0010 0.0010 
3116.135882 0.0010 0.0010 0.0010 0.0010 0.0010 0.0010 0.0010 0.0010 0.0010 
3124.815926 0.0010 0.0010 0.0010 0.0010 0.0010 0.0010 0.0010 0.0010 0.0010 
3133.495971 0.0010 0.0010 0.0010 0.0010 0.0010 0.0010 0.0010 0.0010 0.0010 
3142.176015 0.0010 0.0010 0.0010 0.0010 0.0010 0.0010 0.0010 0.0010 0.0010 
3150.856059 0.0010 0.0010 0.0010 0.0010 0.0010 0.0010 0.0010 0.0010 0.0010 
3159.536103 0.0010 0.0010 0.0010 0.0010 0.0010 0.0010 0.0010 0.0010 0.0010 
3168.216148 0.0010 0.0010 0.0010 0.0010 0.0010 0.0010 0.0010 0.0010 0.0010 
3176.896192 0.0010 0.0010 0.0010 0.0010 0.0010 0.0010 0.0010 0.0010 0.0010 
3185.576236 0.0010 0.0010 0.0010 0.0010 0.0010 0.0010 0.0010 0.0010 0.0010 
3194.256280 0.0010 0.0010 0.0010 0.0010 0.0010 0.0010 0.0010 0.0010 0.0010 
3202.936325 0.0010 0.0010 0.0010 0.0010 0.0010 0.0010 0.0010 0.0010 0.0010 
3211.616369 0.0010 0.0010 0.0010 0.0010 0.0010 0.0010 0.0010 0.0010 0.0010 
3220.296413 0.0010 0.0010 0.0010 0.0010 0.0000 0.0002 0.0003 0.0004 0.0004 
3228.976457 0.0005 0.0007 0.0008 0.0008 0.0008 0.0011 0.0013 0.0014 0.0016 
3237.656502 0.0018 0.0020 0.0020 0.0021 0.0023 0.0023 0.0025 0.0025 0.0025 
3246.336546 0.0027 0.0029 0.0031 0.0033 0.0035 0.0037 0.0038 0.0040 0.0040 
3255.016590 0.0041 0.0043 0.0044 0.0045 0.0047 0.0049 0.0051 0.0052 0.0054 
3263.696634 0.0056 0.0057 0.0058 0.0060 0.0060 0.0060 0.0062 0.0063 0.0065 
3272.376678 0.0068 0.0069 0.0070 0.0072 0.0074 0.0077 0.0078 0.0079 0.0080 
3281.056723 0.0081 0.0083 0.0085 0.0087 0.0088 0.0090 0.0091 0.0092 0.0093 
3289.736767 0.0094 0.0095 0.0097 0.0099 0.0101 0.0103 0.0104 0.0106 0.0107 
3298.416811 0.0109 0.0110 0.0112 0.0113 0.0114 0.0115 0.0116 0.0117 0.0118 
3307.096855 0.0119 0.0120 0.0123 0.0126 0.0127 0.0129 0.0131 0.0133 0.0135 
3315.776900 0.0135 0.0136 0.0137 0.0139 0.0140 0.0141 0.0142 0.0144 0.0144 
3324.456944 0.0145 0.0145 0.0145 0.0147 0.0149 0.0151 0.0152 0.0153 0.0154 
3333.136988 0.0154 0.0154 0.0155 0.0155 0.0154 0.0154 0.0156 0.0157 0.0158 
3341.817032 0.0157 0.0158 0.0159 0.0159 0.0159 0.0160 0.0159 0.0159 0.0158 
3350.497077 0.0157 0.0158 0.0159 0.0159 0.0159 0.0158 0.0157 0.0157 0.0157 
3359.177121 0.0156 0.0155 0.0154 0.0154 0.0154 0.0153 0.0151 0.0149 0.0149 
3367.857165 0.0148 0.0147 0.0147 0.0147 0.0147 0.0146 0.0145 0.0144 0.0142 
3376.537209 0.0141 0.0140 0.0140 0.0138 0.0137 0.0137 0.0136 0.0133 0.0132 
3385.217254 0.0131 0.0130 0.0129 0.0128 0.0126 0.0124 0.0122 0.0122 0.0120 
3393.897298 0.0120 0.0120 0.0119 0.0116 0.0114 0.0112 0.0112 0.0111 0.0110 
3402.577342 0.0109 0.0107 0.0107 0.0108 0.0106 0.0104 0.0103 0.0104 0.0103 
3411.257386 0.0101 0.0100 0.0100 0.0100 0.0100 0.0098 0.0097 0.0096 0.0095 
3419.937431 0.0094 0.0092 0.0091 0.0091 0.0091 0.0090 0.0089 0.0089 0.0087 
3428.617475 0.0085 0.0084 0.0085 0.0084 0.0084 0.0082 0.0082 0.0081 0.0080 
3437.297519 0.0079 0.0079 0.0079 0.0079 0.0078 0.0076 0.0074 0.0074 0.0074 
3445.977563 0.0075 0.0072 0.0071 0.0073 0.0073 0.0072 0.0072 0.0070 0.0070 
3454.657608 0.0069 0.0068 0.0068 0.0066 0.0064 0.0063 0.0063 0.0063 0.0061 
3463.337652 0.0059 0.0059 0.0059 0.0057 0.0056 0.0055 0.0055 0.0055 0.0055 
3472.017696 0.0055 0.0054 0.0053 0.0051 0.0052 0.0051 0.0050 0.0049 0.0048 
3480.697740 0.0047 0.0046 0.0044 0.0045 0.0044 0.0041 0.0041 0.0041 0.0039 
3489.377784 0.0040 0.0040 0.0038 0.0038 0.0036 0.0036 0.0035 0.0033 0.0031 
3498.057829 0.0030 0.0030 0.0029 0.0027 0.0024 0.0021 0.0019 0.0020 0.0021 
3506.737873 0.0021 0.0020 0.0019 0.0013 0.0013 0.0013 0.0013 0.0012 0.0011 
3515.417917 0.0009 0.0007 0.0005 0.0005 0.0003 0.0002 0.0001 0.0010 0.0010 
3524.097961 0.0010 0.0010 0.0010 0.0010 0.0010 0.0010 0.0010 0.0010 0.0010 
3532.778006 0.0010 0.0010 0.0010 0.0010 0.0010 0.0010 0.0010 0.0010 0.0010 
3541.458050 0.0010 0.0010 0.0010 0.0010 0.0010 0.0010 0.0010 0.0010 0.0010 
3550.138094 0.0010 0.0010 0.0010 0.0010 0.0010 0.0010 0.0010 0.0010 0.0010 
3558.818138 0.0010 0.0010 0.0010 0.0010 0.0010 0.0010 0.0010 0.0010 0.0010 
3567.498183 0.0010 0.0010 0.0010 0.0010 0.0010 0.0010 0.0010 0.0010 0.0010 
3576.178227 0.0010 0.0010 0.0010 0.0010 0.0010 0.0010 0.0010 0.0010 0.0010 
3584.858271 0.0010 0.0010 0.0010 0.0010 0.0010 0.0010 0.0010 0.0010 0.0010 
3593.538315 0.0010 0.0010 0.0010 0.0010 0.0010 0.0010 0.0010 0.0010 0.0010 
3602.218360 0.0010 0.0010 0.0010 0.0010 0.0010 0.0010 0.0005 0.0007 0.0004 
3610.898404 0.0015 0.0021 0.0024 0.0031 0.0033 0.0040 0.0051 0.0057 0.0071 
3619.578448 0.0078 0.0083 0.0089 0.0099 0.0108 0.0116 0.0124 0.0131 0.0147 
3628.258492 0.0161 0.0160 0.0155 0.0155 0.0157 0.0153 0.0147 0.0148 0.0147 
3636.938537 0.0147 0.0144 0.0141 0.0140 0.0132 0.0121 0.0108 0.0097 0.0087 
3645.618581 0.0083 0.0072 0.0057 0.0046 0.0034 0.0023 0.0010 0.0010 0.0010 
3654.298625 0.0010 0.0010 0.0010 0.0010 0.0010 0.0010 0.0010 0.0010 0.0010 
3662.978669 0.0010 0.0010 0.0010 0.0010 0.0010 0.0010 0.0010 0.0010 0.0010 
3671.658714 0.0010 0.0010 0.0010 0.0010 0.0010 0.0010 0.0010 0.0010 0.0010 
3680.338758 0.0010 0.0010 0.0010 0.0010 0.0010 0.0010 0.0010 0.0010 0.0010 
3689.018802 0.0010 0.0010 0.0010 0.0010 0.0010 0.0010 0.0010 0.0010 0.0010 
3697.698846 0.0010 0.0010 0.0010 0.0010 0.0010 0.0010 0.0010 0.0010 0.0010 
3706.378890 0.0010 0.0010 0.0010 0.0010 0.0010 0.0010 0.0010 0.0010 0.0010 
3715.058935 0.0010 0.0010 0.0010 0.0010 0.0010 0.0010 0.0010 0.0010 0.0010 
3723.738979 0.0010 0.0010 0.0010 0.0010 0.0010 0.0010 0.0010 0.0010 0.0010 
3732.419023 0.0010 0.0010 0.0010 0.0010 0.0010 0.0010 0.0010 0.0010 0.0010 
3741.099067 0.0010 0.0010 0.0010 0.0010 0.0010 0.0010 0.0010 0.0010 0.0010 
3749.779112 0.0010 0.0010 0.0010 0.0010 0.0010 0.0010 0.0010 0.0010 0.0010 
3758.459156 0.0010 0.0010 0.0010 0.0010 0.0010 0.0010 0.0010 0.0010 0.0010 
3767.139200 0.0010 0.0010 0.0010 0.0010 0.0010 0.0010 0.0010 0.0010 0.0010 
3775.819244 0.0010 0.0010 0.0010 0.0010 0.0010 0.0010 0.0010 0.0010 0.0010 
3784.499289 0.0010 0.0010 0.0010 0.0010 0.0010 0.0010 0.0010 0.0010 0.0010 
3793.179333 0.0010 0.0010 0.0010 0.0010 0.0010 0.0010 0.0010 0.0010 0.0010 
3801.859377 0.0010 0.0010 0.0010 0.0010 0.0010 0.0010 0.0010 0.0010 0.0010 
3810.539421 0.0010 0.0010 0.0010 0.0010 0.0010 0.0010 0.0010 0.0010 0.0010 
3819.219466 0.0010 0.0010 0.0010 0.0010 0.0010 0.0010 0.0010 0.0010 0.0010 
3827.899510 0.0010 0.0010 0.0010 0.0010 0.0010 0.0010 0.0010 0.0010 0.0010 
3836.579554 0.0010 0.0010 0.0010 0.0010 0.0010 0.0010 0.0010 0.0010 0.0010 
3845.259598 0.0010 0.0010 0.0010 0.0010 0.0010 0.0010 0.0010 0.0010 0.0010 
3853.939643 0.0010 0.0010 0.0010 0.0010 0.0010 0.0010 0.0010 0.0010 0.0010 
3862.619687 0.0010 0.0010 0.0010 0.0010 0.0010 0.0010 0.0010 0.0010 0.0010 
3871.299731 0.0010 0.0010 0.0010 0.0010 0.0010 0.0010 0.0010 0.0010 0.0010 
3879.979775 0.0010 0.0010 0.0010 0.0010 0.0010 0.0010 0.0010 0.0010 0.0010 
3888.659820 0.0010 0.0010 0.0010 0.0010 0.0010 0.0010 0.0010 0.0010 0.0010 
3897.339864 0.0010 0.0010 0.0010 0.0010 0.0010 0.0010 0.0010 0.0010 0.0010 
3906.019908 0.0010 0.0010 0.0010 0.0010 0.0010 0.0010 0.0010 0.0010 0.0010 
3914.699952 0.0010 0.0010 0.0010 0.0010 0.0010 0.0010 0.0010 0.0010 0.0010 
3923.379996 0.0010 0.0010 0.0010 0.0010 0.0010 0.0010 0.0010 0.0010 0.0010 
3932.060041 0.0010 0.0010 0.0010 0.0010 0.0010 0.0010 0.0010 0.0010 0.0010 
3940.740085 0.0010 0.0010 0.0010 0.0010 0.0010 0.0010 0.0010 0.0010 0.0010 
3949.420129 0.0010 0.0010 0.0010 0.0010 0.0010 0.0010 0.0010 0.0010 0.0010 
3958.100173 0.0010 0.0010 0.0010 0.0010 0.0010 0.0010 0.0010 0.0010 0.0010 
3966.780218 0.0010 0.0010 0.0010 0.0010 0.0010 0.0010 0.0010 0.0010 0.0010 
3975.460262 0.0010 0.0010 0.0010 0.0010 0.0010 0.0010 0.0010 0.0010 0.0010 
3984.140306 0.0010 0.0010 0.0010 0.0010 0.0010 0.0010 0.0010 0.0010 0.0010 
3992.820350 0.0010 0.0010 0.0010 0.0010 0.0010 0.0010 0.0010 0.0010 0.0010 
##END=
