##JCAMP-DX=5.01
##FILENAME=KAM-15.jdx
##XUNITS=1/CM
##YUNITS=ABSORBANCE
##FIRSTX=3998.372010
##LASTX=399.258570
##MAXX=3998.372010
##MINX=399.258570
##FIRSTY=0.0076
##LASTY=0.0109
##MAXY=1.4700
##MINY=0.0010
##NPOINTS=3733
##XFACTOR=1
##YFACTOR=1
##XYDATA=(X++(Y..Y))
3998.372010 0.0076 0.0077 0.0077 0.0077 0.0078 0.0078 0.0078 0.0078 0.0078 
3989.692480 0.0078 0.0078 0.0078 0.0077 0.0077 0.0077 0.0076 0.0076 0.0075 
3981.012940 0.0075 0.0074 0.0073 0.0072 0.0071 0.0070 0.0069 0.0068 0.0067 
3972.333410 0.0066 0.0065 0.0064 0.0063 0.0062 0.0061 0.0060 0.0059 0.0059 
3963.653880 0.0058 0.0057 0.0057 0.0056 0.0055 0.0054 0.0053 0.0052 0.0051 
3954.974340 0.0050 0.0049 0.0048 0.0048 0.0047 0.0046 0.0045 0.0045 0.0044 
3946.294810 0.0043 0.0042 0.0041 0.0040 0.0040 0.0039 0.0038 0.0037 0.0036 
3937.615270 0.0035 0.0035 0.0035 0.0034 0.0034 0.0034 0.0034 0.0033 0.0033 
3928.935740 0.0033 0.0032 0.0032 0.0033 0.0032 0.0033 0.0032 0.0032 0.0032 
3920.256210 0.0032 0.0032 0.0033 0.0033 0.0033 0.0033 0.0033 0.0033 0.0032 
3911.576670 0.0032 0.0032 0.0032 0.0032 0.0032 0.0033 0.0033 0.0034 0.0034 
3902.897140 0.0034 0.0035 0.0035 0.0035 0.0035 0.0035 0.0034 0.0034 0.0034 
3894.217600 0.0034 0.0034 0.0034 0.0034 0.0034 0.0034 0.0034 0.0034 0.0034 
3885.538070 0.0035 0.0035 0.0035 0.0036 0.0036 0.0036 0.0036 0.0036 0.0036 
3876.858540 0.0036 0.0036 0.0036 0.0037 0.0037 0.0038 0.0038 0.0038 0.0039 
3868.179000 0.0039 0.0039 0.0039 0.0039 0.0040 0.0040 0.0040 0.0040 0.0040 
3859.499470 0.0040 0.0040 0.0040 0.0040 0.0041 0.0041 0.0042 0.0043 0.0043 
3850.819930 0.0043 0.0044 0.0043 0.0043 0.0043 0.0043 0.0043 0.0043 0.0043 
3842.140400 0.0044 0.0043 0.0044 0.0044 0.0044 0.0044 0.0044 0.0044 0.0044 
3833.460870 0.0043 0.0043 0.0043 0.0043 0.0042 0.0042 0.0042 0.0041 0.0041 
3824.781330 0.0040 0.0040 0.0040 0.0039 0.0039 0.0039 0.0039 0.0038 0.0038 
3816.101800 0.0038 0.0038 0.0038 0.0037 0.0037 0.0036 0.0035 0.0035 0.0034 
3807.422260 0.0034 0.0034 0.0034 0.0034 0.0033 0.0033 0.0033 0.0034 0.0034 
3798.742730 0.0033 0.0033 0.0033 0.0032 0.0032 0.0031 0.0031 0.0030 0.0030 
3790.063190 0.0030 0.0030 0.0030 0.0030 0.0030 0.0030 0.0030 0.0030 0.0030 
3781.383660 0.0030 0.0030 0.0030 0.0030 0.0030 0.0030 0.0030 0.0031 0.0031 
3772.704130 0.0031 0.0031 0.0031 0.0032 0.0032 0.0032 0.0032 0.0032 0.0032 
3764.024590 0.0032 0.0031 0.0031 0.0031 0.0031 0.0031 0.0031 0.0031 0.0031 
3755.345060 0.0031 0.0031 0.0031 0.0031 0.0031 0.0032 0.0032 0.0032 0.0033 
3746.665520 0.0033 0.0033 0.0034 0.0034 0.0035 0.0035 0.0035 0.0035 0.0036 
3737.985990 0.0036 0.0037 0.0038 0.0038 0.0038 0.0038 0.0037 0.0037 0.0037 
3729.306460 0.0037 0.0038 0.0038 0.0039 0.0039 0.0039 0.0039 0.0039 0.0038 
3720.626920 0.0038 0.0038 0.0037 0.0037 0.0037 0.0037 0.0037 0.0038 0.0039 
3711.947390 0.0039 0.0040 0.0041 0.0042 0.0042 0.0043 0.0044 0.0044 0.0045 
3703.267850 0.0045 0.0046 0.0047 0.0048 0.0048 0.0049 0.0050 0.0051 0.0052 
3694.588320 0.0053 0.0055 0.0056 0.0058 0.0060 0.0061 0.0062 0.0063 0.0063 
3685.908790 0.0063 0.0062 0.0061 0.0060 0.0059 0.0058 0.0057 0.0056 0.0055 
3677.229250 0.0055 0.0054 0.0054 0.0054 0.0053 0.0053 0.0053 0.0053 0.0053 
3668.549720 0.0052 0.0052 0.0052 0.0052 0.0052 0.0052 0.0053 0.0053 0.0054 
3659.870180 0.0055 0.0056 0.0058 0.0059 0.0061 0.0063 0.0066 0.0069 0.0072 
3651.190650 0.0076 0.0081 0.0087 0.0093 0.0099 0.0105 0.0110 0.0115 0.0119 
3642.511120 0.0123 0.0125 0.0127 0.0128 0.0128 0.0127 0.0125 0.0123 0.0121 
3633.831580 0.0119 0.0117 0.0115 0.0113 0.0111 0.0108 0.0106 0.0103 0.0099 
3625.152050 0.0095 0.0091 0.0087 0.0084 0.0080 0.0077 0.0073 0.0070 0.0067 
3616.472510 0.0064 0.0062 0.0060 0.0058 0.0057 0.0056 0.0055 0.0054 0.0054 
3607.792980 0.0053 0.0053 0.0053 0.0052 0.0052 0.0052 0.0052 0.0052 0.0052 
3599.113450 0.0052 0.0053 0.0053 0.0053 0.0054 0.0054 0.0054 0.0054 0.0055 
3590.433910 0.0055 0.0056 0.0057 0.0058 0.0058 0.0059 0.0059 0.0059 0.0059 
3581.754380 0.0060 0.0060 0.0061 0.0062 0.0063 0.0064 0.0065 0.0066 0.0067 
3573.074840 0.0068 0.0069 0.0070 0.0072 0.0074 0.0076 0.0078 0.0079 0.0080 
3564.395310 0.0081 0.0082 0.0083 0.0084 0.0085 0.0087 0.0088 0.0090 0.0092 
3555.715780 0.0094 0.0096 0.0098 0.0100 0.0102 0.0105 0.0107 0.0109 0.0112 
3547.036240 0.0115 0.0117 0.0119 0.0122 0.0124 0.0126 0.0129 0.0131 0.0134 
3538.356710 0.0137 0.0140 0.0144 0.0147 0.0150 0.0153 0.0156 0.0160 0.0163 
3529.677170 0.0167 0.0170 0.0174 0.0178 0.0181 0.0185 0.0189 0.0192 0.0196 
3520.997640 0.0199 0.0202 0.0206 0.0209 0.0213 0.0216 0.0220 0.0223 0.0227 
3512.318110 0.0230 0.0234 0.0237 0.0240 0.0243 0.0246 0.0248 0.0251 0.0253 
3503.638570 0.0256 0.0258 0.0260 0.0262 0.0263 0.0265 0.0266 0.0267 0.0268 
3494.959040 0.0269 0.0270 0.0271 0.0272 0.0272 0.0272 0.0272 0.0272 0.0272 
3486.279500 0.0272 0.0271 0.0271 0.0270 0.0269 0.0268 0.0267 0.0265 0.0264 
3477.599970 0.0262 0.0261 0.0259 0.0257 0.0255 0.0253 0.0252 0.0250 0.0248 
3468.920440 0.0246 0.0243 0.0241 0.0239 0.0236 0.0234 0.0231 0.0229 0.0226 
3460.240900 0.0224 0.0222 0.0219 0.0217 0.0214 0.0212 0.0210 0.0207 0.0205 
3451.561370 0.0202 0.0200 0.0198 0.0196 0.0193 0.0191 0.0189 0.0187 0.0185 
3442.881830 0.0183 0.0180 0.0178 0.0176 0.0174 0.0172 0.0170 0.0169 0.0167 
3434.202300 0.0165 0.0164 0.0162 0.0161 0.0159 0.0157 0.0156 0.0154 0.0153 
3425.522770 0.0151 0.0150 0.0148 0.0147 0.0146 0.0145 0.0144 0.0142 0.0141 
3416.843230 0.0140 0.0138 0.0137 0.0136 0.0135 0.0133 0.0132 0.0131 0.0130 
3408.163700 0.0129 0.0127 0.0126 0.0125 0.0124 0.0123 0.0122 0.0121 0.0120 
3399.484160 0.0119 0.0118 0.0117 0.0116 0.0116 0.0115 0.0113 0.0113 0.0112 
3390.804630 0.0111 0.0110 0.0109 0.0108 0.0107 0.0106 0.0106 0.0105 0.0104 
3382.125100 0.0103 0.0102 0.0101 0.0100 0.0100 0.0099 0.0098 0.0098 0.0097 
3373.445560 0.0096 0.0095 0.0095 0.0094 0.0093 0.0092 0.0092 0.0091 0.0090 
3364.766030 0.0089 0.0089 0.0088 0.0087 0.0087 0.0086 0.0086 0.0085 0.0084 
3356.086490 0.0084 0.0083 0.0082 0.0082 0.0081 0.0081 0.0080 0.0080 0.0079 
3347.406960 0.0079 0.0078 0.0078 0.0077 0.0077 0.0076 0.0076 0.0076 0.0075 
3338.727430 0.0075 0.0075 0.0074 0.0074 0.0073 0.0073 0.0073 0.0072 0.0072 
3330.047890 0.0071 0.0071 0.0071 0.0071 0.0070 0.0070 0.0070 0.0069 0.0069 
3321.368360 0.0069 0.0068 0.0068 0.0068 0.0067 0.0067 0.0067 0.0066 0.0066 
3312.688820 0.0066 0.0065 0.0065 0.0065 0.0064 0.0064 0.0063 0.0063 0.0063 
3304.009290 0.0062 0.0062 0.0062 0.0062 0.0062 0.0062 0.0062 0.0061 0.0061 
3295.329760 0.0061 0.0061 0.0060 0.0060 0.0060 0.0060 0.0060 0.0059 0.0059 
3286.650220 0.0059 0.0059 0.0059 0.0059 0.0060 0.0059 0.0059 0.0059 0.0059 
3277.970690 0.0059 0.0059 0.0059 0.0059 0.0059 0.0059 0.0060 0.0060 0.0060 
3269.291150 0.0060 0.0060 0.0060 0.0060 0.0060 0.0060 0.0060 0.0060 0.0061 
3260.611620 0.0061 0.0061 0.0061 0.0061 0.0062 0.0062 0.0062 0.0062 0.0063 
3251.932080 0.0063 0.0063 0.0063 0.0064 0.0064 0.0064 0.0065 0.0065 0.0065 
3243.252550 0.0066 0.0066 0.0066 0.0067 0.0067 0.0068 0.0068 0.0069 0.0069 
3234.573020 0.0069 0.0070 0.0071 0.0071 0.0072 0.0073 0.0073 0.0074 0.0075 
3225.893480 0.0075 0.0076 0.0077 0.0078 0.0079 0.0079 0.0080 0.0081 0.0082 
3217.213950 0.0083 0.0084 0.0085 0.0086 0.0088 0.0089 0.0090 0.0091 0.0092 
3208.534410 0.0093 0.0094 0.0095 0.0096 0.0097 0.0098 0.0098 0.0099 0.0100 
3199.854880 0.0101 0.0101 0.0102 0.0103 0.0104 0.0104 0.0105 0.0105 0.0105 
3191.175350 0.0106 0.0106 0.0106 0.0106 0.0106 0.0106 0.0106 0.0106 0.0107 
3182.495810 0.0106 0.0107 0.0106 0.0106 0.0106 0.0106 0.0106 0.0106 0.0106 
3173.816280 0.0106 0.0106 0.0106 0.0106 0.0105 0.0105 0.0105 0.0105 0.0105 
3165.136740 0.0105 0.0105 0.0105 0.0105 0.0105 0.0105 0.0105 0.0104 0.0104 
3156.457210 0.0104 0.0104 0.0104 0.0104 0.0104 0.0105 0.0105 0.0105 0.0106 
3147.777680 0.0106 0.0106 0.0106 0.0106 0.0107 0.0107 0.0107 0.0107 0.0107 
3139.098140 0.0108 0.0108 0.0108 0.0109 0.0109 0.0109 0.0110 0.0110 0.0110 
3130.418610 0.0110 0.0110 0.0111 0.0111 0.0111 0.0112 0.0112 0.0112 0.0112 
3121.739070 0.0113 0.0113 0.0113 0.0113 0.0114 0.0115 0.0115 0.0116 0.0117 
3113.059540 0.0117 0.0118 0.0119 0.0120 0.0120 0.0121 0.0122 0.0123 0.0123 
3104.380010 0.0124 0.0125 0.0126 0.0127 0.0128 0.0129 0.0130 0.0131 0.0132 
3095.700470 0.0133 0.0134 0.0135 0.0136 0.0137 0.0138 0.0139 0.0140 0.0142 
3087.020940 0.0143 0.0144 0.0145 0.0147 0.0148 0.0150 0.0152 0.0153 0.0155 
3078.341400 0.0157 0.0159 0.0161 0.0163 0.0165 0.0168 0.0170 0.0172 0.0174 
3069.661870 0.0176 0.0179 0.0181 0.0183 0.0186 0.0189 0.0192 0.0194 0.0197 
3060.982340 0.0200 0.0203 0.0207 0.0210 0.0213 0.0216 0.0220 0.0223 0.0227 
3052.302800 0.0231 0.0235 0.0239 0.0243 0.0247 0.0252 0.0256 0.0261 0.0265 
3043.623270 0.0270 0.0275 0.0280 0.0286 0.0291 0.0297 0.0302 0.0308 0.0314 
3034.943730 0.0320 0.0327 0.0334 0.0340 0.0347 0.0354 0.0362 0.0369 0.0377 
3026.264200 0.0385 0.0394 0.0402 0.0411 0.0421 0.0430 0.0441 0.0451 0.0462 
3017.584670 0.0473 0.0485 0.0497 0.0510 0.0524 0.0538 0.0553 0.0568 0.0585 
3008.905130 0.0602 0.0621 0.0640 0.0660 0.0682 0.0705 0.0729 0.0755 0.0783 
3000.225600 0.0813 0.0845 0.0879 0.0916 0.0957 0.1001 0.1049 0.1101 0.1158 
2991.546060 0.1221 0.1291 0.1369 0.1453 0.1548 0.1652 0.1767 0.1894 0.2035 
2982.866530 0.2190 0.2364 0.2559 0.2780 0.3032 0.3320 0.3648 0.4021 0.4446 
2974.187000 0.4933 0.5487 0.6113 0.6812 0.7584 0.8424 0.9323 1.0261 1.1207 
2965.507460 1.2119 1.2950 1.3654 1.4199 1.4560 1.4700 1.4589 1.4226 1.3644 
2956.827930 1.2906 1.2085 1.1252 1.0468 0.9785 0.9229 0.8798 0.8476 0.8247 
2948.148390 0.8107 0.8055 0.8089 0.8202 0.8389 0.8648 0.8976 0.9360 0.9790 
2939.468860 1.0256 1.0739 1.1208 1.1618 1.1918 1.2068 1.2054 1.1888 1.1599 
2930.789330 1.1229 1.0811 1.0368 0.9910 0.9443 0.8980 0.8535 0.8121 0.7749 
2922.109790 0.7426 0.7156 0.6938 0.6769 0.6643 0.6551 0.6482 0.6422 0.6358 
2913.430260 0.6280 0.6181 0.6058 0.5915 0.5759 0.5596 0.5435 0.5281 0.5138 
2904.750720 0.5008 0.4889 0.4778 0.4670 0.4564 0.4458 0.4357 0.4261 0.4174 
2896.071190 0.4097 0.4031 0.3976 0.3933 0.3906 0.3897 0.3911 0.3950 0.4015 
2887.391660 0.4111 0.4242 0.4412 0.4628 0.4896 0.5222 0.5614 0.6080 0.6628 
2878.712120 0.7257 0.7948 0.8648 0.9273 0.9739 1.0007 1.0108 1.0113 1.0094 
2870.032590 1.0102 1.0155 1.0243 1.0335 1.0405 1.0427 1.0389 1.0290 1.0139 
2861.353050 0.9949 0.9741 0.9533 0.9327 0.9113 0.8882 0.8631 0.8359 0.8067 
2852.673520 0.7757 0.7435 0.7109 0.6785 0.6469 0.6165 0.5872 0.5582 0.5288 
2843.993990 0.4985 0.4675 0.4365 0.4060 0.3769 0.3499 0.3255 0.3036 0.2839 
2835.314450 0.2662 0.2504 0.2362 0.2235 0.2119 0.2013 0.1914 0.1820 0.1732 
2826.634920 0.1649 0.1572 0.1500 0.1435 0.1376 0.1323 0.1276 0.1236 0.1201 
2817.955380 0.1172 0.1148 0.1128 0.1113 0.1103 0.1097 0.1095 0.1099 0.1108 
2809.275850 0.1124 0.1147 0.1178 0.1217 0.1265 0.1319 0.1379 0.1442 0.1507 
2800.596320 0.1569 0.1625 0.1669 0.1701 0.1715 0.1712 0.1691 0.1656 0.1608 
2791.916780 0.1551 0.1487 0.1420 0.1350 0.1281 0.1213 0.1148 0.1085 0.1026 
2783.237250 0.0971 0.0921 0.0876 0.0835 0.0798 0.0765 0.0736 0.0710 0.0687 
2774.557710 0.0666 0.0646 0.0628 0.0611 0.0595 0.0580 0.0566 0.0553 0.0541 
2765.878180 0.0530 0.0519 0.0510 0.0502 0.0495 0.0490 0.0485 0.0482 0.0480 
2757.198640 0.0479 0.0479 0.0480 0.0481 0.0483 0.0486 0.0489 0.0492 0.0495 
2748.519110 0.0499 0.0503 0.0508 0.0514 0.0521 0.0530 0.0539 0.0549 0.0558 
2739.839580 0.0567 0.0575 0.0582 0.0588 0.0593 0.0596 0.0598 0.0597 0.0593 
2731.160040 0.0586 0.0577 0.0567 0.0556 0.0545 0.0534 0.0522 0.0511 0.0502 
2722.480510 0.0494 0.0487 0.0481 0.0476 0.0473 0.0470 0.0467 0.0465 0.0462 
2713.800970 0.0458 0.0453 0.0449 0.0443 0.0438 0.0433 0.0428 0.0424 0.0422 
2705.121440 0.0420 0.0420 0.0419 0.0418 0.0416 0.0412 0.0407 0.0401 0.0394 
2696.441910 0.0386 0.0379 0.0372 0.0364 0.0357 0.0350 0.0342 0.0335 0.0328 
2687.762370 0.0321 0.0314 0.0307 0.0301 0.0295 0.0289 0.0282 0.0276 0.0269 
2679.082840 0.0262 0.0254 0.0247 0.0240 0.0234 0.0228 0.0223 0.0219 0.0215 
2670.403300 0.0212 0.0210 0.0208 0.0206 0.0205 0.0203 0.0202 0.0200 0.0199 
2661.723770 0.0198 0.0196 0.0195 0.0194 0.0192 0.0191 0.0189 0.0187 0.0184 
2653.044240 0.0182 0.0179 0.0176 0.0173 0.0170 0.0167 0.0165 0.0163 0.0161 
2644.364700 0.0161 0.0160 0.0159 0.0158 0.0158 0.0157 0.0157 0.0157 0.0156 
2635.685170 0.0156 0.0156 0.0156 0.0156 0.0156 0.0156 0.0156 0.0156 0.0157 
2627.005630 0.0156 0.0156 0.0156 0.0156 0.0156 0.0156 0.0155 0.0154 0.0154 
2618.326100 0.0153 0.0152 0.0151 0.0151 0.0150 0.0149 0.0148 0.0147 0.0147 
2609.646570 0.0147 0.0146 0.0146 0.0146 0.0147 0.0147 0.0147 0.0148 0.0149 
2600.967030 0.0150 0.0151 0.0152 0.0154 0.0155 0.0156 0.0157 0.0158 0.0159 
2592.287500 0.0159 0.0160 0.0160 0.0160 0.0159 0.0158 0.0157 0.0156 0.0155 
2583.607960 0.0153 0.0151 0.0148 0.0145 0.0141 0.0137 0.0133 0.0129 0.0126 
2574.928430 0.0122 0.0118 0.0114 0.0111 0.0107 0.0104 0.0101 0.0099 0.0096 
2566.248900 0.0094 0.0092 0.0090 0.0089 0.0087 0.0086 0.0085 0.0084 0.0083 
2557.569360 0.0082 0.0080 0.0079 0.0078 0.0077 0.0075 0.0074 0.0073 0.0072 
2548.889830 0.0071 0.0070 0.0069 0.0068 0.0067 0.0066 0.0066 0.0065 0.0064 
2540.210290 0.0064 0.0063 0.0063 0.0062 0.0062 0.0061 0.0061 0.0060 0.0060 
2531.530760 0.0059 0.0059 0.0058 0.0058 0.0058 0.0058 0.0058 0.0058 0.0058 
2522.851230 0.0058 0.0058 0.0058 0.0057 0.0057 0.0057 0.0057 0.0056 0.0056 
2514.171690 0.0056 0.0055 0.0055 0.0055 0.0055 0.0054 0.0054 0.0054 0.0054 
2505.492160 0.0054 0.0054 0.0054 0.0054 0.0054 0.0054 0.0054 0.0054 0.0054 
2496.812620 0.0054 0.0054 0.0054 0.0054 0.0054 0.0054 0.0054 0.0054 0.0054 
2488.133090 0.0054 0.0054 0.0054 0.0054 0.0054 0.0053 0.0053 0.0053 0.0053 
2479.453560 0.0053 0.0053 0.0053 0.0053 0.0053 0.0052 0.0052 0.0052 0.0052 
2470.774020 0.0052 0.0052 0.0052 0.0052 0.0053 0.0053 0.0053 0.0053 0.0054 
2462.094490 0.0054 0.0054 0.0055 0.0055 0.0055 0.0055 0.0056 0.0056 0.0056 
2453.414950 0.0057 0.0057 0.0057 0.0058 0.0058 0.0058 0.0059 0.0059 0.0060 
2444.735420 0.0060 0.0061 0.0061 0.0062 0.0062 0.0062 0.0063 0.0063 0.0063 
2436.055890 0.0064 0.0064 0.0065 0.0065 0.0065 0.0065 0.0065 0.0065 0.0065 
2427.376350 0.0065 0.0065 0.0066 0.0066 0.0066 0.0066 0.0067 0.0067 0.0068 
2418.696820 0.0068 0.0069 0.0069 0.0069 0.0070 0.0070 0.0070 0.0070 0.0070 
2410.017280 0.0070 0.0070 0.0070 0.0071 0.0071 0.0071 0.0072 0.0072 0.0073 
2401.337750 0.0073 0.0074 0.0074 0.0074 0.0073 0.0073 0.0073 0.0073 0.0072 
2392.658220 0.0072 0.0071 0.0071 0.0071 0.0071 0.0071 0.0071 0.0071 0.0071 
2383.978680 0.0072 0.0072 0.0072 0.0073 0.0073 0.0073 0.0073 0.0073 0.0072 
2375.299150 0.0072 0.0072 0.0071 0.0071 0.0070 0.0070 0.0069 0.0068 0.0067 
2366.619610 0.0066 0.0065 0.0064 0.0063 0.0062 0.0062 0.0061 0.0061 0.0060 
2357.940080 0.0060 0.0060 0.0060 0.0060 0.0062 0.0063 0.0064 0.0065 0.0065 
2349.260550 0.0064 0.0064 0.0063 0.0062 0.0062 0.0061 0.0060 0.0060 0.0059 
2340.581010 0.0059 0.0059 0.0059 0.0059 0.0058 0.0058 0.0058 0.0059 0.0059 
2331.901480 0.0059 0.0060 0.0060 0.0060 0.0060 0.0060 0.0061 0.0061 0.0061 
2323.221940 0.0061 0.0061 0.0060 0.0060 0.0059 0.0059 0.0058 0.0058 0.0058 
2314.542410 0.0057 0.0057 0.0057 0.0057 0.0057 0.0056 0.0056 0.0055 0.0054 
2305.862880 0.0053 0.0053 0.0052 0.0051 0.0050 0.0050 0.0049 0.0049 0.0048 
2297.183340 0.0048 0.0047 0.0047 0.0047 0.0047 0.0046 0.0046 0.0046 0.0046 
2288.503810 0.0046 0.0046 0.0046 0.0046 0.0046 0.0046 0.0047 0.0047 0.0047 
2279.824270 0.0048 0.0048 0.0049 0.0049 0.0049 0.0049 0.0050 0.0050 0.0050 
2271.144740 0.0050 0.0050 0.0050 0.0050 0.0051 0.0051 0.0051 0.0051 0.0051 
2262.465200 0.0052 0.0052 0.0052 0.0052 0.0052 0.0052 0.0052 0.0052 0.0052 
2253.785670 0.0052 0.0051 0.0051 0.0051 0.0051 0.0051 0.0050 0.0050 0.0050 
2245.106140 0.0050 0.0050 0.0050 0.0050 0.0050 0.0050 0.0050 0.0050 0.0050 
2236.426600 0.0050 0.0050 0.0050 0.0051 0.0051 0.0051 0.0052 0.0052 0.0052 
2227.747070 0.0053 0.0053 0.0053 0.0053 0.0053 0.0054 0.0054 0.0054 0.0054 
2219.067530 0.0054 0.0054 0.0054 0.0055 0.0055 0.0055 0.0055 0.0055 0.0055 
2210.388000 0.0055 0.0055 0.0055 0.0055 0.0055 0.0055 0.0055 0.0055 0.0056 
2201.708470 0.0056 0.0056 0.0056 0.0056 0.0056 0.0056 0.0057 0.0057 0.0057 
2193.028930 0.0057 0.0057 0.0057 0.0056 0.0056 0.0056 0.0056 0.0056 0.0055 
2184.349400 0.0055 0.0055 0.0055 0.0056 0.0056 0.0056 0.0056 0.0057 0.0058 
2175.669860 0.0058 0.0058 0.0059 0.0059 0.0059 0.0059 0.0059 0.0059 0.0059 
2166.990330 0.0058 0.0058 0.0058 0.0057 0.0057 0.0056 0.0056 0.0055 0.0054 
2158.310800 0.0054 0.0053 0.0053 0.0052 0.0052 0.0051 0.0051 0.0051 0.0051 
2149.631260 0.0051 0.0051 0.0051 0.0052 0.0052 0.0053 0.0053 0.0054 0.0054 
2140.951730 0.0055 0.0056 0.0057 0.0058 0.0058 0.0059 0.0059 0.0060 0.0061 
2132.272190 0.0061 0.0062 0.0062 0.0063 0.0063 0.0064 0.0065 0.0066 0.0067 
2123.592660 0.0067 0.0068 0.0069 0.0071 0.0072 0.0073 0.0073 0.0074 0.0075 
2114.913130 0.0076 0.0076 0.0077 0.0078 0.0079 0.0080 0.0081 0.0082 0.0083 
2106.233590 0.0084 0.0086 0.0087 0.0089 0.0090 0.0091 0.0092 0.0093 0.0094 
2097.554060 0.0095 0.0096 0.0096 0.0096 0.0096 0.0097 0.0097 0.0097 0.0097 
2088.874520 0.0098 0.0098 0.0099 0.0099 0.0100 0.0100 0.0101 0.0101 0.0101 
2080.194990 0.0101 0.0101 0.0100 0.0099 0.0098 0.0097 0.0096 0.0095 0.0094 
2071.515460 0.0093 0.0092 0.0092 0.0091 0.0090 0.0090 0.0089 0.0089 0.0088 
2062.835920 0.0088 0.0087 0.0087 0.0086 0.0085 0.0085 0.0084 0.0083 0.0083 
2054.156390 0.0082 0.0082 0.0081 0.0081 0.0081 0.0080 0.0080 0.0079 0.0079 
2045.476850 0.0078 0.0078 0.0078 0.0078 0.0078 0.0078 0.0078 0.0078 0.0078 
2036.797320 0.0078 0.0078 0.0078 0.0078 0.0077 0.0077 0.0076 0.0074 0.0073 
2028.117790 0.0072 0.0070 0.0068 0.0067 0.0066 0.0065 0.0063 0.0063 0.0062 
2019.438250 0.0061 0.0060 0.0060 0.0059 0.0058 0.0058 0.0057 0.0056 0.0056 
2010.758720 0.0056 0.0055 0.0055 0.0055 0.0055 0.0055 0.0055 0.0055 0.0055 
2002.079180 0.0055 0.0055 0.0055 0.0055 0.0054 0.0054 0.0054 0.0054 0.0054 
1993.399650 0.0055 0.0055 0.0055 0.0055 0.0055 0.0055 0.0055 0.0055 0.0055 
1984.720120 0.0055 0.0055 0.0056 0.0056 0.0057 0.0058 0.0058 0.0059 0.0060 
1976.040580 0.0061 0.0062 0.0063 0.0064 0.0064 0.0065 0.0065 0.0066 0.0067 
1967.361050 0.0067 0.0067 0.0068 0.0068 0.0068 0.0069 0.0069 0.0069 0.0069 
1958.681510 0.0070 0.0070 0.0071 0.0071 0.0071 0.0071 0.0072 0.0072 0.0072 
1950.001980 0.0073 0.0073 0.0073 0.0073 0.0074 0.0074 0.0074 0.0074 0.0074 
1941.322450 0.0074 0.0073 0.0073 0.0073 0.0072 0.0072 0.0072 0.0071 0.0071 
1932.642910 0.0071 0.0070 0.0069 0.0069 0.0068 0.0067 0.0066 0.0065 0.0064 
1923.963380 0.0064 0.0063 0.0062 0.0061 0.0060 0.0060 0.0059 0.0058 0.0058 
1915.283840 0.0057 0.0057 0.0057 0.0057 0.0057 0.0057 0.0057 0.0056 0.0056 
1906.604310 0.0056 0.0055 0.0055 0.0055 0.0054 0.0054 0.0053 0.0053 0.0052 
1897.924780 0.0052 0.0051 0.0051 0.0050 0.0050 0.0049 0.0049 0.0049 0.0048 
1889.245240 0.0048 0.0048 0.0047 0.0047 0.0046 0.0046 0.0046 0.0046 0.0046 
1880.565710 0.0046 0.0046 0.0046 0.0046 0.0046 0.0046 0.0046 0.0046 0.0047 
1871.886170 0.0047 0.0048 0.0048 0.0048 0.0049 0.0049 0.0049 0.0049 0.0050 
1863.206640 0.0050 0.0050 0.0051 0.0051 0.0051 0.0052 0.0052 0.0052 0.0052 
1854.527110 0.0052 0.0052 0.0052 0.0051 0.0051 0.0051 0.0050 0.0050 0.0050 
1845.847570 0.0049 0.0049 0.0049 0.0048 0.0048 0.0048 0.0047 0.0047 0.0047 
1837.168040 0.0047 0.0047 0.0047 0.0047 0.0047 0.0047 0.0046 0.0046 0.0046 
1828.488500 0.0046 0.0046 0.0046 0.0046 0.0045 0.0045 0.0045 0.0045 0.0044 
1819.808970 0.0044 0.0044 0.0044 0.0044 0.0044 0.0044 0.0044 0.0045 0.0045 
1811.129440 0.0046 0.0046 0.0046 0.0047 0.0047 0.0048 0.0048 0.0049 0.0049 
1802.449900 0.0049 0.0050 0.0050 0.0049 0.0049 0.0049 0.0049 0.0049 0.0049 
1793.770370 0.0049 0.0049 0.0049 0.0049 0.0048 0.0048 0.0048 0.0048 0.0048 
1785.090830 0.0048 0.0048 0.0048 0.0048 0.0048 0.0048 0.0049 0.0049 0.0049 
1776.411300 0.0049 0.0050 0.0050 0.0050 0.0051 0.0052 0.0053 0.0053 0.0054 
1767.731760 0.0055 0.0055 0.0055 0.0056 0.0057 0.0057 0.0058 0.0059 0.0060 
1759.052230 0.0061 0.0062 0.0063 0.0065 0.0066 0.0068 0.0069 0.0072 0.0074 
1750.372700 0.0077 0.0080 0.0084 0.0088 0.0092 0.0097 0.0102 0.0108 0.0115 
1741.693160 0.0121 0.0128 0.0135 0.0143 0.0150 0.0157 0.0163 0.0169 0.0173 
1733.013630 0.0176 0.0175 0.0172 0.0167 0.0160 0.0153 0.0145 0.0137 0.0131 
1724.334090 0.0126 0.0122 0.0119 0.0118 0.0117 0.0117 0.0117 0.0117 0.0117 
1715.654560 0.0116 0.0114 0.0112 0.0109 0.0107 0.0104 0.0101 0.0097 0.0094 
1706.975030 0.0091 0.0088 0.0085 0.0082 0.0079 0.0077 0.0075 0.0073 0.0071 
1698.295490 0.0070 0.0068 0.0068 0.0067 0.0066 0.0065 0.0065 0.0064 0.0064 
1689.615960 0.0063 0.0063 0.0062 0.0062 0.0062 0.0061 0.0061 0.0061 0.0061 
1680.936420 0.0061 0.0061 0.0061 0.0061 0.0061 0.0061 0.0061 0.0061 0.0061 
1672.256890 0.0061 0.0061 0.0061 0.0061 0.0061 0.0061 0.0061 0.0061 0.0061 
1663.577360 0.0061 0.0060 0.0060 0.0060 0.0061 0.0061 0.0061 0.0061 0.0061 
1654.897820 0.0062 0.0062 0.0062 0.0061 0.0061 0.0061 0.0010 0.0010 0.0010 
1646.218290 0.0010 0.0010 0.0010 0.0010 0.0010 0.0010 0.0010 0.0010 0.0010 
1637.538750 0.0010 0.0010 0.0010 0.0010 0.0010 0.0010 0.0010 0.0010 0.0010 
1628.859220 0.0010 0.0010 0.0010 0.0010 0.0010 0.0010 0.0010 0.0010 0.0010 
1620.179690 0.0010 0.0010 0.0010 0.0010 0.0010 0.0010 0.0010 0.0010 0.0010 
1611.500150 0.0010 0.0010 0.0010 0.0010 0.0010 0.0010 0.0010 0.0010 0.0010 
1602.820620 0.0010 0.0010 0.0010 0.0010 0.0010 0.0010 0.0010 0.0010 0.0010 
1594.141080 0.0010 0.0010 0.0010 0.0010 0.0010 0.0010 0.0010 0.0010 0.0010 
1585.461550 0.0010 0.0010 0.0010 0.0010 0.0010 0.0010 0.0010 0.0010 0.0010 
1576.782020 0.0010 0.0010 0.0010 0.0010 0.0010 0.0010 0.0010 0.0010 0.0010 
1568.102480 0.0010 0.0010 0.0010 0.0010 0.0010 0.0010 0.0010 0.0010 0.0010 
1559.422950 0.0010 0.0010 0.0010 0.0010 0.0010 0.0010 0.0010 0.0010 0.0010 
1550.743410 0.0010 0.0010 0.0010 0.0010 0.0010 0.0010 0.0010 0.0010 0.0010 
1542.063880 0.0010 0.0010 0.0010 0.0010 0.0010 0.0010 0.0010 0.0010 0.0010 
1533.384350 0.0010 0.0010 0.0010 0.0010 0.0010 0.0010 0.0010 0.0010 0.0010 
1524.704810 0.0010 0.0010 0.0010 0.0010 0.0010 0.0010 0.0010 0.0010 0.0010 
1516.025280 0.0010 0.0010 0.0010 0.0010 0.0010 0.0010 0.0010 0.0010 0.0010 
1507.345740 0.0010 0.0010 0.0010 0.0010 0.0010 0.0010 0.0010 0.0010 0.0209 
1498.666210 0.0220 0.0233 0.0248 0.0265 0.0286 0.0313 0.0347 0.0392 0.0448 
1489.986680 0.0515 0.0592 0.0673 0.0752 0.0823 0.0879 0.0918 0.0940 0.0949 
1481.307140 0.0950 0.0947 0.0948 0.0959 0.0986 0.1035 0.1113 0.1224 0.1372 
1472.627610 0.1563 0.1794 0.2058 0.2341 0.2623 0.2873 0.3059 0.3157 0.3167 
1463.948070 0.3109 0.3017 0.2920 0.2836 0.2771 0.2715 0.2653 0.2568 0.2453 
1455.268540 0.2311 0.2153 0.1992 0.1837 0.1692 0.1555 0.1424 0.1297 0.1174 
1446.589010 0.1062 0.0963 0.0881 0.0816 0.0770 0.0741 0.0731 0.0739 0.0766 
1437.909470 0.0811 0.0867 0.0927 0.0975 0.0997 0.0985 0.0936 0.0858 0.0765 
1429.229940 0.0671 0.0589 0.0523 0.0474 0.0440 0.0418 0.0404 0.0397 0.0395 
1420.550400 0.0397 0.0402 0.0410 0.0420 0.0432 0.0445 0.0459 0.0471 0.0481 
1411.870870 0.0486 0.0485 0.0480 0.0472 0.0462 0.0452 0.0445 0.0440 0.0438 
1403.191340 0.0439 0.0444 0.0450 0.0459 0.0469 0.0481 0.0494 0.0506 0.0520 
1394.511800 0.0534 0.0548 0.0565 0.0584 0.0609 0.0643 0.0689 0.0752 0.0836 
1385.832270 0.0945 0.1085 0.1256 0.1455 0.1671 0.1883 0.2067 0.2198 0.2263 
1377.152730 0.2264 0.2216 0.2142 0.2058 0.1978 0.1905 0.1838 0.1776 0.1719 
1368.473200 0.1668 0.1624 0.1587 0.1556 0.1528 0.1497 0.1463 0.1427 0.1392 
1359.793670 0.1359 0.1325 0.1284 0.1227 0.1152 0.1065 0.0973 0.0884 0.0805 
1351.114130 0.0735 0.0674 0.0622 0.0577 0.0539 0.0510 0.0490 0.0478 0.0475 
1342.434600 0.0480 0.0490 0.0505 0.0523 0.0538 0.0546 0.0542 0.0526 0.0497 
1333.755060 0.0461 0.0421 0.0384 0.0353 0.0330 0.0313 0.0303 0.0299 0.0299 
1325.075530 0.0301 0.0307 0.0315 0.0323 0.0332 0.0339 0.0344 0.0345 0.0345 
1316.396000 0.0344 0.0345 0.0350 0.0362 0.0380 0.0405 0.0437 0.0473 0.0511 
1307.716460 0.0547 0.0579 0.0603 0.0621 0.0631 0.0634 0.0632 0.0625 0.0612 
1299.036930 0.0594 0.0570 0.0542 0.0512 0.0482 0.0453 0.0426 0.0402 0.0381 
1290.357390 0.0363 0.0347 0.0334 0.0323 0.0314 0.0306 0.0300 0.0296 0.0294 
1281.677860 0.0293 0.0294 0.0297 0.0304 0.0313 0.0326 0.0342 0.0362 0.0385 
1272.998330 0.0410 0.0436 0.0461 0.0484 0.0501 0.0513 0.0518 0.0517 0.0511 
1264.318790 0.0503 0.0493 0.0485 0.0479 0.0475 0.0474 0.0474 0.0475 0.0474 
1255.639260 0.0472 0.0468 0.0463 0.0456 0.0450 0.0444 0.0439 0.0435 0.0432 
1246.959720 0.0430 0.0429 0.0429 0.0432 0.0439 0.0452 0.0473 0.0504 0.0543 
1238.280190 0.0590 0.0641 0.0691 0.0733 0.0762 0.0773 0.0765 0.0740 0.0700 
1229.600650 0.0652 0.0600 0.0549 0.0503 0.0461 0.0423 0.0390 0.0361 0.0334 
1220.921120 0.0310 0.0288 0.0270 0.0253 0.0240 0.0230 0.0222 0.0217 0.0214 
1212.241590 0.0212 0.0211 0.0211 0.0212 0.0213 0.0215 0.0217 0.0220 0.0223 
1203.562050 0.0227 0.0231 0.0235 0.0239 0.0244 0.0249 0.0254 0.0260 0.0266 
1194.882520 0.0272 0.0278 0.0285 0.0292 0.0299 0.0306 0.0314 0.0323 0.0331 
1186.202980 0.0341 0.0351 0.0361 0.0373 0.0385 0.0400 0.0416 0.0435 0.0458 
1177.523450 0.0485 0.0515 0.0549 0.0583 0.0615 0.0644 0.0673 0.0702 0.0737 
1168.843920 0.0779 0.0829 0.0888 0.0956 0.1028 0.1104 0.1179 0.1252 0.1319 
1160.164380 0.1380 0.1435 0.1486 0.1535 0.1582 0.1627 0.1670 0.1710 0.1747 
1151.484850 0.1783 0.1820 0.1859 0.1902 0.1951 0.2004 0.2063 0.2130 0.2211 
1142.805310 0.2311 0.2436 0.2589 0.2773 0.2986 0.3226 0.3488 0.3765 0.4057 
1134.125780 0.4366 0.4698 0.5055 0.5434 0.5824 0.6211 0.6582 0.6925 0.7232 
1125.446250 0.7498 0.7722 0.7902 0.8039 0.8130 0.8168 0.8144 0.8051 0.7880 
1116.766710 0.7635 0.7335 0.7021 0.6737 0.6522 0.6388 0.6329 0.6320 0.6329 
1108.087180 0.6328 0.6293 0.6214 0.6094 0.5943 0.5774 0.5593 0.5402 0.5196 
1099.407640 0.4966 0.4710 0.4428 0.4125 0.3813 0.3500 0.3196 0.2911 0.2649 
1090.728110 0.2414 0.2207 0.2027 0.1874 0.1744 0.1634 0.1542 0.1467 0.1407 
1082.048580 0.1362 0.1328 0.1304 0.1289 0.1281 0.1280 0.1285 0.1295 0.1306 
1073.369040 0.1317 0.1326 0.1328 0.1320 0.1300 0.1270 0.1232 0.1190 0.1148 
1064.689510 0.1108 0.1074 0.1046 0.1022 0.1000 0.0979 0.0961 0.0949 0.0946 
1056.009970 0.0954 0.0967 0.0979 0.0983 0.0976 0.0959 0.0938 0.0921 0.0912 
1047.330440 0.0916 0.0932 0.0963 0.1005 0.1056 0.1110 0.1158 0.1184 0.1177 
1038.650910 0.1131 0.1053 0.0957 0.0857 0.0767 0.0695 0.0642 0.0610 0.0593 
1029.971370 0.0587 0.0587 0.0588 0.0590 0.0591 0.0592 0.0594 0.0595 0.0595 
1021.291840 0.0594 0.0591 0.0587 0.0583 0.0582 0.0585 0.0593 0.0606 0.0619 
1012.612300 0.0630 0.0639 0.0644 0.0645 0.0638 0.0622 0.0599 0.0573 0.0550 
1003.932770 0.0534 0.0525 0.0524 0.0528 0.0536 0.0545 0.0556 0.0567 0.0577 
995.253240 0.0585 0.0590 0.0593 0.0592 0.0587 0.0581 0.0574 0.0569 0.0571 0.0580 
985.609310 0.0598 0.0625 0.0655 0.0684 0.0703 0.0706 0.0693 0.0668 0.0639 0.0612 
975.965380 0.0592 0.0581 0.0575 0.0572 0.0570 0.0571 0.0577 0.0593 0.0617 0.0650 
966.321460 0.0690 0.0736 0.0783 0.0826 0.0856 0.0869 0.0863 0.0841 0.0811 0.0777 
956.677530 0.0743 0.0706 0.0666 0.0624 0.0581 0.0540 0.0502 0.0468 0.0438 0.0411 
947.033600 0.0388 0.0368 0.0351 0.0336 0.0323 0.0312 0.0303 0.0298 0.0296 0.0297 
937.389680 0.0300 0.0305 0.0311 0.0317 0.0323 0.0327 0.0328 0.0326 0.0318 0.0305 
927.745750 0.0288 0.0268 0.0247 0.0227 0.0208 0.0192 0.0178 0.0166 0.0156 0.0148 
918.101820 0.0141 0.0136 0.0131 0.0128 0.0125 0.0123 0.0123 0.0123 0.0125 0.0129 
908.457900 0.0136 0.0146 0.0160 0.0179 0.0202 0.0229 0.0257 0.0284 0.0304 0.0315 
898.813970 0.0314 0.0301 0.0281 0.0258 0.0237 0.0218 0.0202 0.0188 0.0176 0.0165 
889.170040 0.0157 0.0151 0.0148 0.0147 0.0148 0.0152 0.0157 0.0162 0.0169 0.0174 
879.526120 0.0178 0.0180 0.0180 0.0179 0.0177 0.0175 0.0175 0.0176 0.0180 0.0185 
869.882190 0.0192 0.0199 0.0206 0.0210 0.0211 0.0209 0.0205 0.0198 0.0189 0.0178 
860.238260 0.0167 0.0010 0.0010 0.0010 0.0010 0.0010 0.0010 0.0010 0.0010 0.0010 
850.594340 0.0010 0.0010 0.0010 0.0010 0.0010 0.0010 0.0010 0.0010 0.0010 0.0010 
840.950410 0.0010 0.0010 0.0010 0.0010 0.0010 0.0010 0.0010 0.0010 0.0010 0.0010 
831.306480 0.0010 0.0010 0.0010 0.0010 0.0010 0.0010 0.0010 0.0010 0.0010 0.0010 
821.662560 0.0010 0.0010 0.0010 0.0010 0.0010 0.0010 0.0010 0.0010 0.0010 0.0010 
812.018630 0.0010 0.0010 0.0010 0.0010 0.0010 0.0010 0.0010 0.0010 0.0010 0.0010 
802.374700 0.0010 0.0010 0.0010 0.0010 0.0010 0.0010 0.0010 0.0010 0.0010 0.0010 
792.730780 0.0010 0.0010 0.0010 0.0010 0.0010 0.0010 0.0010 0.0010 0.0010 0.0010 
783.086850 0.0010 0.0010 0.0010 0.0010 0.0010 0.0010 0.0010 0.0010 0.0010 0.0010 
773.442920 0.0010 0.0010 0.0010 0.0010 0.0010 0.0010 0.0010 0.0010 0.0010 0.0010 
763.799000 0.0010 0.0010 0.0010 0.0010 0.0010 0.0010 0.0010 0.0010 0.0010 0.0010 
754.155070 0.0010 0.0010 0.0010 0.0010 0.0010 0.0010 0.0010 0.0010 0.0010 0.0010 
744.511140 0.0010 0.0010 0.0010 0.0010 0.0010 0.0010 0.0010 0.0010 0.0010 0.0010 
734.867210 0.0010 0.0010 0.0010 0.0010 0.0010 0.0010 0.0010 0.0010 0.0010 0.0010 
725.223290 0.0010 0.0010 0.0010 0.0010 0.0010 0.0010 0.0010 0.0010 0.0010 0.0010 
715.579360 0.0010 0.0010 0.0010 0.0010 0.0010 0.0010 0.0010 0.0010 0.0010 0.0010 
705.935430 0.0010 0.0010 0.0010 0.0010 0.0010 0.0010 0.0010 0.0010 0.0010 0.0010 
696.291510 0.0010 0.0010 0.0010 0.0010 0.0010 0.0010 0.0010 0.0010 0.0010 0.0010 
686.647580 0.0010 0.0010 0.0010 0.0010 0.0010 0.0010 0.0010 0.0010 0.0010 0.0010 
677.003650 0.0010 0.0010 0.0010 0.0010 0.0010 0.0010 0.0010 0.0010 0.0010 0.0010 
667.359730 0.0010 0.0010 0.0010 0.0010 0.0010 0.0010 0.0010 0.0010 0.0010 0.0010 
657.715800 0.0010 0.0010 0.0010 0.0010 0.0010 0.0010 0.0010 0.0010 0.0010 0.0051 
648.071870 0.0052 0.0052 0.0052 0.0052 0.0052 0.0052 0.0053 0.0053 0.0053 0.0053 
638.427950 0.0052 0.0052 0.0050 0.0047 0.0043 0.0038 0.0033 0.0029 0.0026 0.0025 
628.784020 0.0026 0.0029 0.0031 0.0033 0.0035 0.0037 0.0040 0.0043 0.0046 0.0049 
619.140090 0.0053 0.0056 0.0059 0.0059 0.0059 0.0060 0.0061 0.0062 0.0063 0.0064 
609.496170 0.0065 0.0066 0.0068 0.0068 0.0069 0.0069 0.0070 0.0070 0.0071 0.0072 
599.852240 0.0073 0.0074 0.0075 0.0076 0.0076 0.0077 0.0077 0.0079 0.0079 0.0080 
590.208310 0.0081 0.0081 0.0082 0.0083 0.0084 0.0085 0.0086 0.0088 0.0089 0.0091 
580.564390 0.0092 0.0094 0.0095 0.0097 0.0100 0.0102 0.0103 0.0104 0.0105 0.0106 
570.920460 0.0107 0.0107 0.0108 0.0109 0.0110 0.0111 0.0112 0.0114 0.0116 0.0118 
561.276530 0.0121 0.0123 0.0126 0.0130 0.0136 0.0142 0.0148 0.0153 0.0156 0.0156 
551.632610 0.0153 0.0149 0.0144 0.0140 0.0137 0.0134 0.0132 0.0131 0.0130 0.0130 
541.988680 0.0130 0.0130 0.0130 0.0131 0.0131 0.0132 0.0132 0.0132 0.0133 0.0135 
532.344750 0.0137 0.0139 0.0141 0.0142 0.0143 0.0144 0.0146 0.0148 0.0151 0.0155 
522.700830 0.0158 0.0161 0.0163 0.0164 0.0163 0.0161 0.0159 0.0158 0.0158 0.0158 
513.056900 0.0158 0.0158 0.0155 0.0150 0.0144 0.0138 0.0132 0.0127 0.0123 0.0120 
503.412970 0.0117 0.0114 0.0112 0.0109 0.0107 0.0106 0.0104 0.0102 0.0101 0.0101 
493.769050 0.0100 0.0099 0.0098 0.0098 0.0099 0.0100 0.0101 0.0101 0.0099 0.0096 
484.125120 0.0091 0.0087 0.0083 0.0080 0.0077 0.0075 0.0073 0.0071 0.0069 0.0068 
474.481190 0.0067 0.0067 0.0069 0.0070 0.0072 0.0075 0.0079 0.0083 0.0088 0.0094 
464.837270 0.0100 0.0106 0.0112 0.0119 0.0124 0.0127 0.0128 0.0126 0.0122 0.0116 
455.193340 0.0110 0.0105 0.0101 0.0097 0.0093 0.0090 0.0087 0.0086 0.0085 0.0085 
445.549410 0.0085 0.0084 0.0082 0.0081 0.0080 0.0080 0.0080 0.0081 0.0082 0.0082 
435.905490 0.0082 0.0082 0.0082 0.0082 0.0082 0.0082 0.0082 0.0083 0.0083 0.0084 
426.261560 0.0084 0.0086 0.0087 0.0088 0.0089 0.0090 0.0092 0.0094 0.0096 0.0096 
416.617630 0.0095 0.0095 0.0095 0.0096 0.0096 0.0096 0.0097 0.0099 0.0101 0.0103 
406.973710 0.0106 0.0108 0.0110 0.0111 0.0110 0.0109 0.0108 0.0108 0.0109 
##END=
